#Energy(keV)    dEe/dx(keV/micro_m)  dEn/dx(keV/micro_m)  x(micro_m) LastWrongU
0.00999999     6.483E+00  3.385E+01       0.0003          2          1    
0.0109999     6.799E+00  3.554E+01       0.0003          2          1    
0.0119999     7.101E+00  3.713E+01       0.0003          2          1    
0.0129999     7.391E+00  3.865E+01       0.0003          2          2    
0.0139999     7.670E+00  4.010E+01       0.0003          2          2    
0.0149999     7.940E+00  4.149E+01       0.0003          2          2    
0.0159999     8.200E+00  4.282E+01       0.0003          2          2    
0.0169999     8.452E+00  4.410E+01       0.0004          2          2    
0.0179999     8.697E+00  4.533E+01       0.0004          2          2    
0.0199999     9.168E+00  4.766E+01       0.0004          3          2    
0.0224999     9.724E+00  5.037E+01       0.0004          3          2    
0.0249999     1.025E+01  5.289E+01       0.0004          3          2    
0.0274999     1.075E+01  5.524E+01       0.0004          3          2    
0.0299999     1.123E+01  5.744E+01       0.0005          3          2    
0.0324999     1.169E+01  5.952E+01       0.0005          3          2    
0.0349999     1.213E+01  6.149E+01       0.0005          3          2    
0.0374999     1.255E+01  6.336E+01       0.0005          4          2    
0.0399999     1.297E+01  6.514E+01       0.0005          4          3    
0.0449999     1.375E+01  6.847E+01       0.0006          4          3    
0.0499999     1.450E+01  7.152E+01       0.0006          4          3    
0.0549999     1.520E+01  7.435E+01       0.0006          4          3    
0.0599999     1.588E+01  7.698E+01       0.0007          4          3    
0.0649999     1.653E+01  7.945E+01       0.0007          5          3    
0.0699999     1.715E+01  8.176E+01       0.0007          5          3    
0.0799999     1.834E+01  8.601E+01       0.0008          5          4    
0.0899999     1.945E+01  8.983E+01       0.0008          5          4    
0.0999999     2.050E+01  9.330E+01       0.0009          6          4    
0.110     2.150E+01  9.647E+01       0.0009          6          4    
0.120     2.246E+01  9.940E+01      0.0010          6          4    
0.130     2.337E+01  1.021E+02      0.0010          6          5    
0.139999     2.426E+01  1.046E+02      0.0011          7          5    
0.149999     2.511E+01  1.070E+02      0.0011          7          5    
0.159999     2.593E+01  1.092E+02      0.0012          7          5    
0.169999     2.673E+01  1.113E+02      0.0012          7          5    
0.179999     2.750E+01  1.132E+02      0.0013          8          6    
0.199999     2.899E+01  1.168E+02      0.0013          8          6    
0.224999     3.075E+01  1.209E+02      0.0014          9          6    
0.249999     3.241E+01  1.244E+02      0.0015          9          7    
0.274999     3.399E+01  1.276E+02      0.0016         10          7    
0.299999     3.551E+01  1.305E+02      0.0017         10          7    
0.324999     3.695E+01  1.332E+02      0.0018         11          8    
0.349999     3.835E+01  1.356E+02      0.0019         11          8    
0.374999     3.970E+01  1.378E+02      0.0020         11          8    
0.399999     4.100E+01  1.398E+02      0.0021         12          9    
0.449999     4.348E+01  1.434E+02      0.0023         13          9    
0.499999     4.584E+01  1.466E+02      0.0024         14         10    
0.549999     4.807E+01  1.493E+02      0.0026         14         11    
0.599999     5.021E+01  1.517E+02      0.0028         15         11    
0.649999     5.226E+01  1.538E+02      0.0029         16         12    
0.699999     5.423E+01  1.557E+02      0.0031         17         12    
0.799999     5.798E+01  1.588E+02      0.0034         18         13    
0.899999     6.149E+01  1.614E+02      0.0037         19         14    
0.999999     6.482E+01  1.635E+02      0.0040         21         15    
1.10    6.798E+01  1.652E+02      0.0043         22         16    
1.20    7.100E+01  1.666E+02      0.0046         23         17    
1.30    7.390E+01  1.677E+02      0.0049         24         18    
1.40    7.669E+01  1.686E+02      0.0051         26         19    
1.50    7.938E+01  1.693E+02      0.0054         27         20    
1.60    8.199E+01  1.699E+02      0.0057         28         21    
1.70    8.451E+01  1.703E+02      0.0060         29         22    
1.80    8.696E+01  1.707E+02      0.0063         30         22    
2.00    9.166E+01  1.711E+02      0.0068         33         24    
2.25    9.722E+01  1.711E+02      0.0075         35         26    
2.50    1.025E+02  1.709E+02      0.0081         38         28    
2.75    1.075E+02  1.703E+02      0.0088         40         30    
3.00    1.123E+02  1.696E+02      0.0095         43         32    
3.25    1.168E+02  1.688E+02     0.0101         45         34    
3.50    1.213E+02  1.678E+02     0.0108         48         35    
3.75    1.255E+02  1.668E+02     0.0114         50         37    
4.00    1.296E+02  1.657E+02     0.0120         52         39    
4.50    1.375E+02  1.634E+02     0.0133         57         42    
5.00    1.449E+02  1.610E+02     0.0146         61         45    
5.50    1.520E+02  1.586E+02     0.0158         65         49    
6.00    1.587E+02  1.562E+02     0.0171         69         52    
6.50    1.652E+02  1.538E+02     0.0183         73         55    
7.00    1.715E+02  1.514E+02     0.0195         77         58    
8.00    1.833E+02  1.468E+02     0.0220         84         64    
9.00    1.944E+02  1.425E+02     0.0244         91         69    
10.00    2.049E+02  1.384E+02     0.0268         98         75    
11.00    2.149E+02  1.346E+02     0.0291        104         80    
12.00    2.245E+02  1.309E+02     0.0315        111         85    
13.00    2.336E+02  1.275E+02     0.0338        116         90    
14.00    2.424E+02  1.243E+02     0.0361        122         95    
15.00    2.509E+02  1.213E+02     0.0384        127        100    
16.00    2.592E+02  1.184E+02     0.0406        133        105    
17.00    2.671E+02  1.157E+02     0.0428        138        109    
18.00    2.749E+02  1.131E+02     0.0451        142        114    
20.00    2.897E+02  1.084E+02     0.0494        152        122    
22.50    3.073E+02  1.030E+02     0.0548        162        133    
25.00    3.229E+02  9.829E+01     0.0601        172        143    
27.50    3.370E+02  9.404E+01     0.0652        181        152    
30.00    3.514E+02  9.020E+01     0.0703        190        161    
32.50    3.658E+02  8.671E+01     0.0753        198        169    
35.00    3.798E+02  8.353E+01     0.0802        206        178    
37.50    3.935E+02  8.062E+01     0.0850        213        186    
40.00    4.067E+02  7.793E+01     0.0897        219        193    
45.00    4.316E+02  7.314E+01     0.0989        232        207    
50.00    4.544E+02  6.900E+01    0.1079        243        221    
55.00    4.752E+02  6.536E+01    0.1166        253        233    
60.00    4.942E+02  6.215E+01    0.1250        262        245    
65.00    5.118E+02  5.929E+01    0.1333        271        256    
70.00    5.285E+02  5.671E+01    0.1414        279        266    
80.00    5.604E+02  5.227E+01    0.1571        293        285    
90.00    5.918E+02  4.856E+01    0.1722        306        303    
100.00    6.229E+02  4.540E+01    0.1868        317        319    
110.00    6.534E+02  4.269E+01    0.2008        328        334    
120.00    6.832E+02  4.032E+01    0.2143        337        347    
130.00    7.122E+02  3.823E+01    0.2273        345        359    
140.00    7.405E+02  3.637E+01    0.2399        352        371    
150.00    7.681E+02  3.471E+01    0.2522        359        382    
160.00    7.952E+02  3.321E+01    0.2640        365        392    
170.00    8.218E+02  3.185E+01    0.2756        371        401    
180.00    8.480E+02  3.061E+01    0.2868        376        410    
200.00    8.994E+02  2.844E+01    0.3084        386        427    
225.00    9.621E+02  2.616E+01    0.3339        397        445    
250.00    1.023E+03  2.425E+01    0.3579        406        461    
275.00    1.083E+03  2.264E+01    0.3807        414        475    
300.00    1.142E+03  2.124E+01    0.4023        421        487    
325.00    1.199E+03  2.003E+01    0.4230        427        498    
350.00    1.255E+03  1.896E+01    0.4428        432        509    
375.00    1.309E+03  1.801E+01    0.4617        437        518    
400.00    1.362E+03  1.716E+01    0.4800        442        527    
450.00    1.463E+03  1.570E+01    0.5146        450        542    
500.00    1.559E+03  1.449E+01    0.5470        458        555    
550.00    1.650E+03  1.347E+01    0.5776        464        566    
600.00    1.736E+03  1.259E+01    0.6067        470        577    
650.00    1.817E+03  1.184E+01    0.6344        475        586    
700.00    1.894E+03  1.117E+01    0.6610        479        594    
800.00    2.035E+03  1.006E+01    0.7114        489        608    
900.00    2.161E+03  9.169E+00    0.7586        497        620    
1000.00    2.274E+03  8.433E+00    0.8033        505        630    
1000.10    2.373E+03  7.815E+00    0.8460        511        639    
1000.20    2.462E+03  7.289E+00    0.8871        517        647    
1000.30    2.540E+03  6.834E+00    0.9268        522        654    
1000.40    2.608E+03  6.437E+00    0.9655        527        661    
1000.50    2.668E+03  6.087E+00    1.00       531        667    
1000.60    2.720E+03  5.776E+00    1.04       536        673    
1000.70    2.764E+03  5.497E+00    1.08       540        678    
1000.80    2.800E+03  5.246E+00    1.11       543        683    
2000.00    2.855E+03  4.812E+00    1.18       555        692    
2000.25    2.893E+03  4.368E+00    1.27       571        703    
2000.50    2.901E+03  4.003E+00    1.36       587        712    
2000.75    2.885E+03  3.699E+00    1.44       601        721    
3000.00    2.850E+03  3.440E+00    1.53       616        729    
3000.25    2.799E+03  3.218E+00    1.62       631        738    
3000.50    2.737E+03  3.024E+00    1.71       646        745    
3000.75    2.665E+03  2.854E+00    1.80       661        753    
4000.00    2.588E+03  2.704E+00    1.89       676        761    
4000.50    2.423E+03  2.448E+00    2.09       737        777    
5000.00    2.256E+03  2.239E+00    2.31       800        793    
5000.50    2.098E+03  2.066E+00    2.54       868        810    
6000.00    1.955E+03  1.918E+00    2.78       939        828    
6000.50    1.828E+03  1.792E+00    3.05      1015        847    
7000.00    1.717E+03  1.682E+00    3.33      1096        867    
8000.00    1.543E+03  1.500E+00    3.94      1407        913    
9000.00    1.416E+03  1.356E+00    4.62      1710        965    
10000.00    1.323E+03  1.238E+00    5.35      2006       1023 A   