# Energy(keV)    dEe/dx(keV/micro_m)  dEn/dx(keV/micro_m)  x(micro_m)
9.999990000000000268e-03 1.042000000000000037e+00 5.160000000000000142e+00 5.000000000000000104e-04
1.099989999999999996e-02 1.092999999999999972e+00 5.277999999999999581e+00 6.000000000000000559e-04
1.199990000000000084e-02 1.141999999999999904e+00 5.384000000000000341e+00 6.000000000000000559e-04
1.299990000000000000e-02 1.187999999999999945e+00 5.479000000000000092e+00 6.000000000000000559e-04
1.399990000000000089e-02 1.233000000000000096e+00 5.565999999999999837e+00 6.999999999999999929e-04
1.499990000000000004e-02 1.276000000000000023e+00 5.644000000000000128e+00 6.999999999999999929e-04
1.599990000000000093e-02 1.318000000000000060e+00 5.716000000000000192e+00 6.999999999999999929e-04
1.699990000000000182e-02 1.358999999999999986e+00 5.782000000000000028e+00 8.000000000000000383e-04
1.799989999999999923e-02 1.397999999999999909e+00 5.842999999999999972e+00 8.000000000000000383e-04
1.999990000000000101e-02 1.473999999999999977e+00 5.950999999999999623e+00 9.000000000000000838e-04
2.249989999999999976e-02 1.562999999999999945e+00 6.065000000000000391e+00 9.000000000000000838e-04
2.499990000000000198e-02 1.647999999999999909e+00 6.160999999999999588e+00 1.000000000000000021e-03
2.749990000000000073e-02 1.727999999999999980e+00 6.240999999999999659e+00 1.100000000000000066e-03
2.999989999999999948e-02 1.804999999999999938e+00 6.309999999999999609e+00 1.200000000000000112e-03
3.249989999999999823e-02 1.879000000000000004e+00 6.368000000000000327e+00 1.200000000000000112e-03
3.499990000000000046e-02 1.949999999999999956e+00 6.416999999999999815e+00 1.300000000000000157e-03
3.749989999999999574e-02 2.017999999999999794e+00 6.459999999999999964e+00 1.399999999999999986e-03
3.999989999999999796e-02 2.084000000000000075e+00 6.496000000000000441e+00 1.399999999999999986e-03
4.499989999999999546e-02 2.210999999999999854e+00 6.552999999999999936e+00 1.600000000000000077e-03
4.999989999999999990e-02 2.330000000000000071e+00 6.594999999999999751e+00 1.700000000000000122e-03
5.499989999999999740e-02 2.443999999999999950e+00 6.623999999999999666e+00 1.899999999999999996e-03
5.999989999999999490e-02 2.552999999999999936e+00 6.642999999999999794e+00 2.000000000000000042e-03
6.499989999999999934e-02 2.657000000000000028e+00 6.653999999999999915e+00 2.100000000000000304e-03
6.999990000000000379e-02 2.757000000000000117e+00 6.658999999999999808e+00 2.299999999999999961e-03
7.999989999999999879e-02 2.947999999999999954e+00 6.653999999999999915e+00 2.500000000000000052e-03
8.999989999999999379e-02 3.125999999999999890e+00 6.636000000000000121e+00 2.799999999999999972e-03
9.999990000000000268e-02 3.295999999999999819e+00 6.607999999999999652e+00 3.000000000000000062e-03
1.100000000000000006e-01 3.455999999999999961e+00 6.573000000000000398e+00 3.299999999999999982e-03
1.199999999999999956e-01 3.609999999999999876e+00 6.533999999999999808e+00 3.600000000000000335e-03
1.300000000000000044e-01 3.758000000000000007e+00 6.491999999999999993e+00 3.799999999999999992e-03
1.399989999999999846e-01 3.899000000000000021e+00 6.447000000000000064e+00 4.100000000000000346e-03
1.499989999999999934e-01 4.035999999999999588e+00 6.400999999999999801e+00 4.300000000000000003e-03
1.599990000000000023e-01 4.168999999999999595e+00 6.354000000000000092e+00 4.599999999999999922e-03
1.699990000000000112e-01 4.296999999999999709e+00 6.307000000000000384e+00 4.800000000000000447e-03
1.799989999999999923e-01 4.421000000000000263e+00 6.259000000000000341e+00 5.100000000000000366e-03
1.999990000000000101e-01 4.660999999999999588e+00 6.163999999999999702e+00 5.599999999999999943e-03
2.249990000000000046e-01 4.942999999999999616e+00 6.048000000000000043e+00 6.300000000000000044e-03
2.499989999999999990e-01 5.211000000000000298e+00 5.934999999999999609e+00 6.900000000000000751e-03
2.749990000000000490e-01 5.464999999999999858e+00 5.826999999999999957e+00 7.599999999999999985e-03
2.999990000000000157e-01 5.708000000000000185e+00 5.722999999999999865e+00 8.200000000000000691e-03
3.249990000000000379e-01 5.940999999999999837e+00 5.623000000000000220e+00 8.899999999999999925e-03
3.499990000000000046e-01 6.165000000000000036e+00 5.527000000000000135e+00 9.600000000000000894e-03
3.749990000000000268e-01 6.381999999999999673e+00 5.435999999999999943e+00 1.020000000000000073e-02
3.999990000000000490e-01 6.591000000000000192e+00 5.347999999999999865e+00 1.089999999999999997e-02
4.499990000000000379e-01 6.990999999999999659e+00 5.182999999999999829e+00 1.230000000000000017e-02
4.999990000000000268e-01 7.368999999999999773e+00 5.030999999999999694e+00 1.360000000000000098e-02
5.499990000000000157e-01 7.729000000000000092e+00 4.891000000000000014e+00 1.500000000000000118e-02
5.999990000000000601e-01 8.073000000000000398e+00 4.759999999999999787e+00 1.640000000000000138e-02
6.499989999999999934e-01 8.401999999999999247e+00 4.637999999999999901e+00 1.779999999999999985e-02
6.999990000000000379e-01 8.718999999999999417e+00 4.525000000000000355e+00 1.920000000000000179e-02
7.999990000000000157e-01 9.320999999999999730e+00 4.317999999999999616e+00 2.200000000000000219e-02
8.999989999999999934e-01 9.887000000000000455e+00 4.134000000000000341e+00 2.490000000000000199e-02
9.999990000000000823e-01 1.041999999999999993e+01 3.968999999999999861e+00 2.770000000000000240e-02
1.100000000000000089e+00 1.092999999999999972e+01 3.821000000000000174e+00 3.060000000000000220e-02
1.199999999999999956e+00 1.141999999999999993e+01 3.685999999999999943e+00 3.350000000000000200e-02
1.300000000000000044e+00 1.188000000000000078e+01 3.561999999999999833e+00 3.640000000000000180e-02
1.399999999999999911e+00 1.233000000000000007e+01 3.448999999999999844e+00 3.940000000000000446e-02
1.500000000000000000e+00 1.275999999999999979e+01 3.343999999999999861e+00 4.230000000000000426e-02
1.600000000000000089e+00 1.317999999999999972e+01 3.246999999999999886e+00 4.520000000000000406e-02
1.699999999999999956e+00 1.358999999999999986e+01 3.157000000000000028e+00 4.819999999999999979e-02
1.800000000000000044e+00 1.398000000000000043e+01 3.072000000000000064e+00 5.109999999999999959e-02
2.000000000000000000e+00 1.474000000000000021e+01 2.919000000000000039e+00 5.700000000000000205e-02
2.250000000000000000e+00 1.550999999999999979e+01 2.753000000000000114e+00 6.439999999999999891e-02
2.500000000000000000e+00 1.623999999999999844e+01 2.607000000000000206e+00 7.180000000000000271e-02
2.750000000000000000e+00 1.692000000000000171e+01 2.479000000000000092e+00 7.920000000000000651e-02
3.000000000000000000e+00 1.757000000000000028e+01 2.366000000000000103e+00 8.660000000000001030e-02
3.250000000000000000e+00 1.817999999999999972e+01 2.263999999999999790e+00 9.400000000000000022e-02
3.500000000000000000e+00 1.876999999999999957e+01 2.172000000000000153e+00 1.014000000000000040e-01
3.750000000000000000e+00 1.933999999999999986e+01 2.088000000000000078e+00 1.087000000000000050e-01
4.000000000000000000e+00 1.989999999999999858e+01 2.012000000000000011e+00 1.160000000000000059e-01
4.500000000000000000e+00 2.096999999999999886e+01 1.877999999999999892e+00 1.305999999999999939e-01
5.000000000000000000e+00 2.201000000000000156e+01 1.762999999999999901e+00 1.450000000000000178e-01
5.500000000000000000e+00 2.301999999999999957e+01 1.663999999999999924e+00 1.592000000000000082e-01
6.000000000000000000e+00 2.398999999999999844e+01 1.576000000000000068e+00 1.732000000000000206e-01
6.500000000000000000e+00 2.494000000000000128e+01 1.499000000000000110e+00 1.869999999999999996e-01
7.000000000000000000e+00 2.585999999999999943e+01 1.429999999999999938e+00 2.006000000000000005e-01
8.000000000000000000e+00 2.762999999999999901e+01 1.312000000000000055e+00 2.272000000000000131e-01
9.000000000000000000e+00 2.928000000000000114e+01 1.213999999999999968e+00 2.530999999999999917e-01
1.000000000000000000e+01 3.085000000000000142e+01 1.131999999999999895e+00 2.782999999999999918e-01
1.100000000000000000e+01 3.232999999999999829e+01 1.060999999999999943e+00 3.028000000000000136e-01
1.200000000000000000e+01 3.372999999999999687e+01 9.997000000000000330e-01 3.266999999999999904e-01
1.300000000000000000e+01 3.506000000000000227e+01 9.458999999999999631e-01 3.500000000000000333e-01
1.400000000000000000e+01 3.632000000000000028e+01 8.982999999999999874e-01 3.728000000000000203e-01
1.500000000000000000e+01 3.753000000000000114e+01 8.558999999999999941e-01 3.951999999999999957e-01
1.600000000000000000e+01 3.867000000000000171e+01 8.176999999999999824e-01 4.171000000000000263e-01
1.700000000000000000e+01 3.977000000000000313e+01 7.832000000000000073e-01 4.386000000000000454e-01
1.800000000000000000e+01 4.081000000000000227e+01 7.518000000000000238e-01 4.596999999999999975e-01
2.000000000000000000e+01 4.277000000000000313e+01 6.966999999999999860e-01 5.010000000000000009e-01
2.250000000000000000e+01 4.496999999999999886e+01 6.393999999999999684e-01 5.508000000000000673e-01
2.500000000000000000e+01 4.695000000000000284e+01 5.917000000000000037e-01 5.989999999999999769e-01
2.750000000000000000e+01 4.871999999999999886e+01 5.513000000000000123e-01 6.459000000000000297e-01
3.000000000000000000e+01 5.031000000000000227e+01 5.165999999999999481e-01 6.915999999999999925e-01
3.250000000000000000e+01 5.174000000000000199e+01 4.863999999999999990e-01 7.363000000000000655e-01
3.500000000000000000e+01 5.302000000000000313e+01 4.597999999999999865e-01 7.801000000000000156e-01
3.750000000000000000e+01 5.415999999999999659e+01 4.363000000000000211e-01 8.232000000000000428e-01
4.000000000000000000e+01 5.517000000000000171e+01 4.153000000000000025e-01 8.657000000000000250e-01
4.500000000000000000e+01 5.686999999999999744e+01 3.794000000000000150e-01 9.491000000000000547e-01
5.000000000000000000e+01 5.818999999999999773e+01 3.496000000000000218e-01 1.030000000000000027e+00
5.500000000000000000e+01 5.917999999999999972e+01 3.245999999999999996e-01 1.110000000000000098e+00
6.000000000000000000e+01 5.989000000000000057e+01 3.032000000000000250e-01 1.189999999999999947e+00
6.500000000000000000e+01 6.036999999999999744e+01 2.847000000000000086e-01 1.270000000000000018e+00
7.000000000000000000e+01 6.064999999999999858e+01 2.685000000000000164e-01 1.350000000000000089e+00
8.000000000000000000e+01 6.071999999999999886e+01 2.414999999999999925e-01 1.510000000000000009e+00
9.000000000000000000e+01 6.031000000000000227e+01 2.197999999999999954e-01 1.669999999999999929e+00
1.000000000000000000e+02 5.954999999999999716e+01 2.018999999999999961e-01 1.830000000000000071e+00
1.100000000000000000e+02 5.854999999999999716e+01 1.869000000000000106e-01 1.989999999999999991e+00
1.200000000000000000e+02 5.740999999999999659e+01 1.741999999999999937e-01 2.160000000000000142e+00
1.300000000000000000e+02 5.615999999999999659e+01 1.632000000000000117e-01 2.330000000000000071e+00
1.400000000000000000e+02 5.486999999999999744e+01 1.535999999999999865e-01 2.509999999999999787e+00
1.500000000000000000e+02 5.356000000000000227e+01 1.451999999999999957e-01 2.689999999999999947e+00
1.600000000000000000e+02 5.225999999999999801e+01 1.376999999999999891e-01 2.879999999999999893e+00
1.700000000000000000e+02 5.097999999999999687e+01 1.310000000000000053e-01 3.069999999999999840e+00
1.800000000000000000e+02 4.972999999999999687e+01 1.250000000000000000e-01 3.259999999999999787e+00
2.000000000000000000e+02 4.735999999999999943e+01 1.145000000000000046e-01 3.669999999999999929e+00
2.250000000000000000e+02 4.464999999999999858e+01 1.038000000000000034e-01 4.200000000000000178e+00
2.500000000000000000e+02 4.224000000000000199e+01 9.511000000000000010e-02 4.769999999999999574e+00
2.750000000000000000e+02 4.009000000000000341e+01 8.781999999999999529e-02 5.370000000000000107e+00
3.000000000000000000e+02 3.818999999999999773e+01 8.162999999999999423e-02 6.000000000000000000e+00
3.250000000000000000e+02 3.649000000000000199e+01 7.631999999999999895e-02 6.660000000000000142e+00
3.500000000000000000e+02 3.497999999999999687e+01 7.169000000000000372e-02 7.349999999999999645e+00
3.750000000000000000e+02 3.363000000000000256e+01 6.762999999999999567e-02 8.070000000000000284e+00
4.000000000000000000e+02 3.240999999999999659e+01 6.403999999999999970e-02 8.820000000000000284e+00
4.500000000000000000e+02 3.032000000000000028e+01 5.793999999999999845e-02 1.039000000000000057e+01
5.000000000000000000e+02 2.860999999999999943e+01 5.297000000000000319e-02 1.207000000000000028e+01
5.500000000000000000e+02 2.721000000000000085e+01 4.882999999999999841e-02 1.384999999999999964e+01
6.000000000000000000e+02 2.607000000000000028e+01 4.533000000000000224e-02 1.571000000000000085e+01
6.500000000000000000e+02 2.514999999999999858e+01 4.232000000000000345e-02 1.764000000000000057e+01
7.000000000000000000e+02 2.442000000000000171e+01 3.971000000000000224e-02 1.964000000000000057e+01
8.000000000000000000e+02 2.350000000000000000e+01 3.540000000000000091e-02 2.376999999999999957e+01
9.000000000000000000e+02 2.317999999999999972e+01 3.196999999999999842e-02 2.801999999999999957e+01
1.000000000000000000e+03 2.333999999999999986e+01 2.919000000000000067e-02 3.228000000000000114e+01
1.100000000000000000e+03 2.417999999999999972e+01 2.687000000000000152e-02 3.646000000000000085e+01
1.200000000000000000e+03 2.503000000000000114e+01 2.491000000000000159e-02 4.049000000000000199e+01
1.300000000000000000e+03 2.551999999999999957e+01 2.324000000000000024e-02 4.442000000000000171e+01
1.400000000000000000e+03 2.580000000000000071e+01 2.178000000000000075e-02 4.828999999999999915e+01
1.500000000000000000e+03 2.583999999999999986e+01 2.051000000000000045e-02 5.214000000000000057e+01
1.600000000000000000e+03 2.566000000000000014e+01 1.939000000000000098e-02 5.600000000000000000e+01
1.700000000000000000e+03 2.528000000000000114e+01 1.838000000000000050e-02 5.989999999999999858e+01
1.800000000000000000e+03 2.478000000000000114e+01 1.748999999999999860e-02 6.388000000000000256e+01
2.000000000000000000e+03 2.355999999999999872e+01 1.593999999999999931e-02 7.212000000000000455e+01
2.250000000000000000e+03 2.194000000000000128e+01 1.437000000000000083e-02 8.306999999999999318e+01
2.500000000000000000e+03 2.042999999999999972e+01 1.310000000000000053e-02 9.482999999999999829e+01
2.750000000000000000e+03 1.907999999999999829e+01 1.204000000000000035e-02 1.074399999999999977e+02
3.000000000000000000e+03 1.789999999999999858e+01 1.115000000000000019e-02 1.209200000000000017e+02
3.250000000000000000e+03 1.685999999999999943e+01 1.038999999999999993e-02 1.352700000000000102e+02
3.500000000000000000e+03 1.593999999999999950e+01 9.730000000000000801e-03 1.504699999999999989e+02
3.750000000000000000e+03 1.511999999999999922e+01 9.152999999999999678e-03 1.665200000000000102e+02
4.000000000000000000e+03 1.439000000000000057e+01 8.642999999999999641e-03 1.834099999999999966e+02
4.500000000000000000e+03 1.315000000000000036e+01 7.784000000000000120e-03 2.196500000000000057e+02
5.000000000000000000e+03 1.211999999999999922e+01 7.087999999999999683e-03 2.591499999999999773e+02
5.500000000000000000e+03 1.125000000000000000e+01 6.510000000000000162e-03 3.018500000000000227e+02
6.000000000000000000e+03 1.050999999999999979e+01 6.023999999999999841e-03 3.477099999999999795e+02
6.500000000000000000e+03 9.871000000000000441e+00 5.608000000000000138e-03 3.966600000000000250e+02
7.000000000000000000e+03 9.311999999999999389e+00 5.249000000000000193e-03 4.486800000000000068e+02
8.000000000000000000e+03 8.378999999999999559e+00 4.656999999999999681e-03 5.616100000000000136e+02
9.000000000000000000e+03 7.631000000000000227e+00 4.190000000000000148e-03 6.863700000000000045e+02
1.000000000000000000e+04 7.016000000000000014e+00 3.811999999999999850e-03 8.227300000000000182e+02
