# Energy(keV)    dEe/dx(keV/micro_m)  dEn/dx(keV/micro_m)  x(micro_m)
9.999990000000000268e-03 1.379000000000000004e+00 3.786999999999999922e+00 5.000000000000000104e-04
1.099989999999999996e-02 1.445999999999999952e+00 3.884999999999999787e+00 5.000000000000000104e-04
1.199990000000000084e-02 1.510999999999999899e+00 3.974000000000000199e+00 5.000000000000000104e-04
1.299990000000000000e-02 1.572000000000000064e+00 4.054999999999999716e+00 6.000000000000000559e-04
1.399990000000000089e-02 1.631999999999999895e+00 4.128999999999999559e+00 6.000000000000000559e-04
1.499990000000000004e-02 1.689000000000000057e+00 4.197000000000000064e+00 6.000000000000000559e-04
1.599990000000000093e-02 1.743999999999999995e+00 4.261000000000000121e+00 6.999999999999999929e-04
1.699990000000000182e-02 1.798000000000000043e+00 4.318999999999999950e+00 6.999999999999999929e-04
1.799989999999999923e-02 1.850000000000000089e+00 4.373000000000000220e+00 6.999999999999999929e-04
1.999990000000000101e-02 1.949999999999999956e+00 4.472000000000000419e+00 8.000000000000000383e-04
2.249989999999999976e-02 2.068000000000000060e+00 4.578000000000000291e+00 8.000000000000000383e-04
2.499990000000000198e-02 2.180000000000000160e+00 4.668999999999999595e+00 9.000000000000000838e-04
2.749990000000000073e-02 2.286999999999999922e+00 4.748000000000000220e+00 1.000000000000000021e-03
2.999989999999999948e-02 2.387999999999999901e+00 4.817999999999999616e+00 1.000000000000000021e-03
3.249989999999999823e-02 2.486000000000000210e+00 4.878999999999999559e+00 1.100000000000000066e-03
3.499990000000000046e-02 2.580000000000000071e+00 4.932999999999999829e+00 1.100000000000000066e-03
3.749989999999999574e-02 2.669999999999999929e+00 4.980000000000000426e+00 1.200000000000000112e-03
3.999989999999999796e-02 2.758000000000000007e+00 5.022999999999999687e+00 1.200000000000000112e-03
4.499989999999999546e-02 2.924999999999999822e+00 5.096000000000000085e+00 1.399999999999999986e-03
4.999989999999999990e-02 3.083000000000000185e+00 5.153999999999999915e+00 1.500000000000000031e-03
5.499989999999999740e-02 3.233999999999999986e+00 5.200999999999999623e+00 1.600000000000000077e-03
5.999989999999999490e-02 3.378000000000000114e+00 5.238999999999999879e+00 1.700000000000000122e-03
6.499989999999999934e-02 3.516000000000000014e+00 5.269999999999999574e+00 1.800000000000000168e-03
6.999990000000000379e-02 3.648000000000000131e+00 5.296000000000000263e+00 1.899999999999999996e-03
7.999989999999999879e-02 3.899999999999999911e+00 5.331999999999999851e+00 2.100000000000000304e-03
8.999989999999999379e-02 4.136999999999999567e+00 5.352999999999999758e+00 2.299999999999999961e-03
9.999990000000000268e-02 4.360999999999999766e+00 5.363999999999999879e+00 2.500000000000000052e-03
1.100000000000000006e-01 4.573999999999999844e+00 5.368000000000000327e+00 2.700000000000000143e-03
1.199999999999999956e-01 4.777000000000000135e+00 5.365000000000000213e+00 2.900000000000000234e-03
1.300000000000000044e-01 4.972000000000000419e+00 5.357999999999999652e+00 3.100000000000000325e-03
1.399989999999999846e-01 5.160000000000000142e+00 5.347000000000000419e+00 3.299999999999999982e-03
1.499989999999999934e-01 5.341000000000000192e+00 5.333000000000000185e+00 3.500000000000000073e-03
1.599990000000000023e-01 5.516000000000000014e+00 5.317000000000000171e+00 3.700000000000000164e-03
1.699990000000000112e-01 5.685999999999999943e+00 5.299999999999999822e+00 3.900000000000000255e-03
1.799989999999999923e-01 5.849999999999999645e+00 5.280000000000000249e+00 4.100000000000000346e-03
1.999990000000000101e-01 6.166999999999999815e+00 5.238999999999999879e+00 4.500000000000000527e-03
2.249990000000000046e-01 6.541000000000000369e+00 5.184000000000000163e+00 5.000000000000000104e-03
2.499989999999999990e-01 6.894999999999999574e+00 5.126999999999999780e+00 5.500000000000000548e-03
2.749990000000000490e-01 7.230999999999999872e+00 5.068999999999999950e+00 6.000000000000000125e-03
2.999990000000000157e-01 7.552999999999999936e+00 5.009999999999999787e+00 6.500000000000000569e-03
3.249990000000000379e-01 7.860999999999999766e+00 4.953000000000000291e+00 7.000000000000000146e-03
3.499990000000000046e-01 8.157999999999999474e+00 4.895999999999999908e+00 7.500000000000000590e-03
3.749990000000000268e-01 8.444000000000000838e+00 4.839999999999999858e+00 8.099999999999999561e-03
3.999990000000000490e-01 8.721000000000000085e+00 4.785000000000000142e+00 8.600000000000000006e-03
4.499990000000000379e-01 9.250000000000000000e+00 4.679999999999999716e+00 9.600000000000000894e-03
4.999990000000000268e-01 9.750999999999999446e+00 4.578999999999999737e+00 1.060000000000000005e-02
5.499990000000000157e-01 1.023000000000000043e+01 4.483999999999999986e+00 1.160000000000000094e-02
5.999990000000000601e-01 1.067999999999999972e+01 4.392999999999999794e+00 1.260000000000000009e-02
6.499989999999999934e-01 1.111999999999999922e+01 4.307000000000000384e+00 1.360000000000000098e-02
6.999990000000000379e-01 1.153999999999999915e+01 4.224000000000000199e+00 1.470000000000000126e-02
7.999990000000000157e-01 1.233000000000000007e+01 4.072000000000000064e+00 1.669999999999999957e-02
8.999989999999999934e-01 1.308000000000000007e+01 3.932999999999999829e+00 1.880000000000000074e-02
9.999990000000000823e-01 1.378999999999999915e+01 3.805000000000000160e+00 2.090000000000000191e-02
1.100000000000000089e+00 1.446000000000000085e+01 3.688000000000000167e+00 2.299999999999999961e-02
1.199999999999999956e+00 1.510999999999999943e+01 3.580000000000000071e+00 2.510000000000000078e-02
1.300000000000000044e+00 1.572000000000000064e+01 3.479000000000000092e+00 2.720000000000000195e-02
1.399999999999999911e+00 1.632000000000000028e+01 3.386000000000000121e+00 2.930000000000000313e-02
1.500000000000000000e+00 1.689000000000000057e+01 3.298999999999999932e+00 3.140000000000000430e-02
1.600000000000000089e+00 1.744000000000000128e+01 3.217000000000000082e+00 3.350000000000000200e-02
1.699999999999999956e+00 1.798000000000000043e+01 3.140000000000000124e+00 3.559999999999999970e-02
1.800000000000000044e+00 1.850000000000000000e+01 3.068000000000000060e+00 3.770000000000000434e-02
2.000000000000000000e+00 1.950000000000000000e+01 2.935000000000000053e+00 4.200000000000000261e-02
2.250000000000000000e+00 2.053999999999999915e+01 2.787999999999999812e+00 4.730000000000000177e-02
2.500000000000000000e+00 2.148999999999999844e+01 2.657999999999999918e+00 5.260000000000000092e-02
2.750000000000000000e+00 2.239000000000000057e+01 2.541999999999999815e+00 5.790000000000000008e-02
3.000000000000000000e+00 2.323000000000000043e+01 2.438000000000000167e+00 6.320000000000000617e-02
3.250000000000000000e+00 2.401999999999999957e+01 2.343999999999999861e+00 6.850000000000000533e-02
3.500000000000000000e+00 2.476999999999999957e+01 2.258000000000000007e+00 7.380000000000000449e-02
3.750000000000000000e+00 2.550000000000000000e+01 2.180000000000000160e+00 7.910000000000000364e-02
4.000000000000000000e+00 2.621000000000000085e+01 2.108000000000000096e+00 8.440000000000000280e-02
4.500000000000000000e+00 2.758999999999999986e+01 1.979000000000000092e+00 9.489999999999999825e-02
5.000000000000000000e+00 2.894000000000000128e+01 1.868000000000000105e+00 1.053000000000000047e-01
5.500000000000000000e+00 3.026999999999999957e+01 1.770999999999999908e+00 1.156000000000000083e-01
6.000000000000000000e+00 3.157999999999999829e+01 1.685000000000000053e+00 1.257000000000000062e-01
6.500000000000000000e+00 3.285000000000000142e+01 1.608000000000000096e+00 1.358000000000000040e-01
7.000000000000000000e+00 3.410000000000000142e+01 1.538999999999999924e+00 1.456000000000000072e-01
8.000000000000000000e+00 3.649000000000000199e+01 1.421000000000000041e+00 1.650000000000000078e-01
9.000000000000000000e+00 3.875000000000000000e+01 1.320999999999999952e+00 1.837000000000000022e-01
1.000000000000000000e+01 4.089000000000000057e+01 1.237000000000000099e+00 2.020000000000000129e-01
1.100000000000000000e+01 4.292000000000000171e+01 1.163999999999999924e+00 2.198000000000000231e-01
1.200000000000000000e+01 4.484000000000000341e+01 1.100000000000000089e+00 2.372000000000000219e-01
1.300000000000000000e+01 4.665999999999999659e+01 1.044000000000000039e+00 2.542000000000000370e-01
1.400000000000000000e+01 4.839000000000000057e+01 9.939999999999999947e-01 2.708000000000000407e-01
1.500000000000000000e+01 5.003999999999999915e+01 9.492000000000000437e-01 2.871000000000000218e-01
1.600000000000000000e+01 5.160999999999999943e+01 9.088000000000000522e-01 3.029999999999999916e-01
1.700000000000000000e+01 5.310999999999999943e+01 8.721999999999999753e-01 3.187000000000000388e-01
1.800000000000000000e+01 5.454999999999999716e+01 8.387999999999999901e-01 3.341000000000000081e-01
2.000000000000000000e+01 5.721999999999999886e+01 7.799000000000000377e-01 3.642000000000000237e-01
2.250000000000000000e+01 6.025000000000000000e+01 7.181999999999999496e-01 4.006000000000000116e-01
2.500000000000000000e+01 6.296000000000000085e+01 6.665999999999999703e-01 4.358000000000000207e-01
2.750000000000000000e+01 6.540000000000000568e+01 6.227000000000000313e-01 4.701000000000000179e-01
3.000000000000000000e+01 6.757999999999999829e+01 5.847999999999999865e-01 5.035000000000000586e-01
3.250000000000000000e+01 6.954000000000000625e+01 5.517999999999999572e-01 5.362000000000000099e-01
3.500000000000000000e+01 7.131000000000000227e+01 5.227000000000000535e-01 5.683000000000000274e-01
3.750000000000000000e+01 7.287999999999999545e+01 4.968000000000000194e-01 5.998999999999999888e-01
4.000000000000000000e+01 7.429000000000000625e+01 4.736000000000000210e-01 6.310000000000000053e-01
4.500000000000000000e+01 7.667000000000000171e+01 4.336999999999999744e-01 6.921000000000000485e-01
5.000000000000000000e+01 7.854000000000000625e+01 4.007000000000000006e-01 7.520999999999999908e-01
5.500000000000000000e+01 7.998000000000000398e+01 3.726999999999999758e-01 8.112000000000000322e-01
6.000000000000000000e+01 8.104000000000000625e+01 3.487999999999999989e-01 8.696000000000000396e-01
6.500000000000000000e+01 8.179999999999999716e+01 3.280000000000000138e-01 9.277000000000000801e-01
7.000000000000000000e+01 8.229000000000000625e+01 3.098000000000000198e-01 9.856000000000000316e-01
8.000000000000000000e+01 8.260999999999999943e+01 2.792999999999999927e-01 1.100000000000000089e+00
9.000000000000000000e+01 8.226000000000000512e+01 2.546999999999999820e-01 1.219999999999999973e+00
1.000000000000000000e+02 8.143999999999999773e+01 2.343999999999999972e-01 1.340000000000000080e+00
1.100000000000000000e+02 8.026999999999999602e+01 2.174000000000000099e-01 1.459999999999999964e+00
1.200000000000000000e+02 7.889000000000000057e+01 2.028000000000000080e-01 1.580000000000000071e+00
1.300000000000000000e+02 7.734999999999999432e+01 1.902999999999999969e-01 1.699999999999999956e+00
1.400000000000000000e+02 7.573000000000000398e+01 1.792999999999999872e-01 1.830000000000000071e+00
1.500000000000000000e+02 7.406000000000000227e+01 1.696000000000000008e-01 1.959999999999999964e+00
1.600000000000000000e+02 7.239000000000000057e+01 1.610000000000000042e-01 2.089999999999999858e+00
1.700000000000000000e+02 7.071999999999999886e+01 1.532999999999999918e-01 2.229999999999999982e+00
1.800000000000000000e+02 6.909000000000000341e+01 1.464000000000000024e-01 2.370000000000000107e+00
2.000000000000000000e+02 6.596999999999999886e+01 1.343000000000000027e-01 2.660000000000000142e+00
2.250000000000000000e+02 6.235999999999999943e+01 1.219999999999999973e-01 3.040000000000000036e+00
2.500000000000000000e+02 5.910999999999999943e+01 1.118999999999999995e-01 3.439999999999999947e+00
2.750000000000000000e+02 5.620000000000000284e+01 1.034000000000000058e-01 3.870000000000000107e+00
3.000000000000000000e+02 5.359000000000000341e+01 9.622999999999999610e-02 4.320000000000000284e+00
3.250000000000000000e+02 5.125999999999999801e+01 9.003999999999999504e-02 4.790000000000000036e+00
3.500000000000000000e+02 4.915999999999999659e+01 8.465999999999999914e-02 5.280000000000000249e+00
3.750000000000000000e+02 4.728000000000000114e+01 7.992000000000000492e-02 5.790000000000000036e+00
4.000000000000000000e+02 4.557999999999999829e+01 7.571999999999999564e-02 6.320000000000000284e+00
4.500000000000000000e+02 4.264999999999999858e+01 6.859999999999999432e-02 7.440000000000000391e+00
5.000000000000000000e+02 4.021999999999999886e+01 6.278000000000000247e-02 8.630000000000000782e+00
5.500000000000000000e+02 3.821000000000000085e+01 5.793000000000000232e-02 9.890000000000000568e+00
6.000000000000000000e+02 3.653999999999999915e+01 5.381999999999999978e-02 1.121000000000000085e+01
6.500000000000000000e+02 3.515999999999999659e+01 5.027999999999999831e-02 1.258999999999999986e+01
7.000000000000000000e+02 3.403999999999999915e+01 4.721000000000000196e-02 1.401999999999999957e+01
8.000000000000000000e+02 3.246000000000000085e+01 4.213000000000000078e-02 1.700000000000000000e+01
9.000000000000000000e+02 3.162000000000000099e+01 3.810000000000000192e-02 2.008999999999999986e+01
1.000000000000000000e+03 3.137000000000000099e+01 3.481000000000000066e-02 2.323000000000000043e+01
1.100000000000000000e+03 3.187000000000000099e+01 3.207000000000000128e-02 2.635999999999999943e+01
1.200000000000000000e+03 3.235999999999999943e+01 2.974999999999999867e-02 2.944999999999999929e+01
1.300000000000000000e+03 3.257999999999999829e+01 2.776999999999999955e-02 3.250000000000000000e+01
1.400000000000000000e+03 3.264000000000000057e+01 2.604000000000000065e-02 3.553999999999999915e+01
1.500000000000000000e+03 3.246999999999999886e+01 2.452999999999999972e-02 3.859000000000000341e+01
1.600000000000000000e+03 3.207999999999999829e+01 2.319999999999999840e-02 4.167000000000000171e+01
1.700000000000000000e+03 3.151000000000000156e+01 2.200999999999999832e-02 4.478999999999999915e+01
1.800000000000000000e+03 3.082000000000000028e+01 2.094000000000000028e-02 4.797999999999999687e+01
2.000000000000000000e+03 2.925000000000000000e+01 1.910999999999999852e-02 5.460000000000000142e+01
2.250000000000000000e+03 2.725000000000000000e+01 1.723999999999999838e-02 6.340999999999999659e+01
2.500000000000000000e+03 2.539999999999999858e+01 1.572000000000000133e-02 7.285999999999999943e+01
2.750000000000000000e+03 2.376000000000000156e+01 1.446000000000000063e-02 8.298999999999999488e+01
3.000000000000000000e+03 2.230999999999999872e+01 1.340000000000000045e-02 9.379000000000000625e+01
3.250000000000000000e+03 2.103999999999999915e+01 1.248999999999999937e-02 1.052800000000000011e+02
3.500000000000000000e+03 1.992000000000000171e+01 1.170000000000000033e-02 1.174399999999999977e+02
3.750000000000000000e+03 1.892000000000000171e+01 1.101000000000000069e-02 1.302599999999999909e+02
4.000000000000000000e+03 1.803000000000000114e+01 1.039999999999999952e-02 1.437299999999999898e+02
4.500000000000000000e+03 1.650000000000000000e+01 9.376000000000000653e-03 1.726100000000000136e+02
5.000000000000000000e+03 1.523000000000000043e+01 8.540999999999999981e-03 2.040399999999999920e+02
5.500000000000000000e+03 1.416000000000000014e+01 7.849000000000000074e-03 2.379699999999999989e+02
6.000000000000000000e+03 1.324000000000000021e+01 7.265999999999999889e-03 2.743600000000000136e+02
6.500000000000000000e+03 1.244999999999999929e+01 6.767999999999999711e-03 3.131600000000000250e+02
7.000000000000000000e+03 1.175000000000000000e+01 6.335999999999999618e-03 3.543500000000000227e+02
8.000000000000000000e+03 1.058999999999999986e+01 5.625999999999999925e-03 4.436700000000000159e+02
9.000000000000000000e+03 9.660000000000000142e+00 5.065000000000000058e-03 5.422000000000000455e+02
1.000000000000000000e+04 8.891999999999999460e+00 4.610000000000000382e-03 6.497400000000000091e+02
