# Energy(keV)    dEe/dx(keV/micro_m)  dEn/dx(keV/micro_m)  x(micro_m)
9.999990000000000268e-03 1.314000000000000057e+00 3.979999999999999716e+01 3.000000000000000279e-04
1.099989999999999996e-02 1.377999999999999892e+00 4.204999999999999716e+01 3.000000000000000279e-04
1.199990000000000084e-02 1.439000000000000057e+00 4.421000000000000085e+01 3.000000000000000279e-04
1.299990000000000000e-02 1.497999999999999998e+00 4.628999999999999915e+01 3.000000000000000279e-04
1.399990000000000089e-02 1.554999999999999938e+00 4.828000000000000114e+01 3.000000000000000279e-04
1.499990000000000004e-02 1.608999999999999986e+00 5.020000000000000284e+01 3.000000000000000279e-04
1.599990000000000093e-02 1.661999999999999922e+00 5.206000000000000227e+01 3.000000000000000279e-04
1.699990000000000182e-02 1.713000000000000078e+00 5.385999999999999943e+01 4.000000000000000192e-04
1.799989999999999923e-02 1.762999999999999901e+00 5.560999999999999943e+01 4.000000000000000192e-04
1.999990000000000101e-02 1.858000000000000096e+00 5.895000000000000284e+01 4.000000000000000192e-04
2.249989999999999976e-02 1.971000000000000085e+00 6.289000000000000057e+01 4.000000000000000192e-04
2.499990000000000198e-02 2.076999999999999957e+00 6.660999999999999943e+01 4.000000000000000192e-04
2.749990000000000073e-02 2.178999999999999826e+00 7.012000000000000455e+01 4.000000000000000192e-04
2.999989999999999948e-02 2.275999999999999801e+00 7.346999999999999886e+01 5.000000000000000104e-04
3.249989999999999823e-02 2.369000000000000217e+00 7.665999999999999659e+01 5.000000000000000104e-04
3.499990000000000046e-02 2.458000000000000185e+00 7.970999999999999375e+01 5.000000000000000104e-04
3.749989999999999574e-02 2.544000000000000039e+00 8.265000000000000568e+01 5.000000000000000104e-04
3.999989999999999796e-02 2.628000000000000114e+00 8.546999999999999886e+01 5.000000000000000104e-04
4.499989999999999546e-02 2.786999999999999922e+00 9.081999999999999318e+01 5.000000000000000104e-04
4.999989999999999990e-02 2.938000000000000167e+00 9.582999999999999829e+01 6.000000000000000559e-04
5.499989999999999740e-02 3.080999999999999961e+00 1.005000000000000000e+02 6.000000000000000559e-04
5.999989999999999490e-02 3.217999999999999972e+00 1.050000000000000000e+02 6.000000000000000559e-04
6.499989999999999934e-02 3.350000000000000089e+00 1.092000000000000028e+02 6.000000000000000559e-04
6.999990000000000379e-02 3.475999999999999979e+00 1.132999999999999972e+02 6.999999999999999929e-04
7.999989999999999879e-02 3.716000000000000192e+00 1.207999999999999972e+02 6.999999999999999929e-04
8.999989999999999379e-02 3.942000000000000171e+00 1.277999999999999972e+02 8.000000000000000383e-04
9.999990000000000268e-02 4.155000000000000249e+00 1.343000000000000114e+02 8.000000000000000383e-04
1.100000000000000006e-01 4.357999999999999652e+00 1.403000000000000114e+02 8.000000000000000383e-04
1.199999999999999956e-01 4.551999999999999602e+00 1.460000000000000000e+02 9.000000000000000838e-04
1.300000000000000044e-01 4.738000000000000433e+00 1.514000000000000057e+02 9.000000000000000838e-04
1.399989999999999846e-01 4.916000000000000369e+00 1.565000000000000000e+02 9.000000000000000838e-04
1.499989999999999934e-01 5.089000000000000412e+00 1.613000000000000114e+02 1.000000000000000021e-03
1.599990000000000023e-01 5.256000000000000227e+00 1.659000000000000057e+02 1.000000000000000021e-03
1.699990000000000112e-01 5.418000000000000149e+00 1.703000000000000114e+02 1.000000000000000021e-03
1.799989999999999923e-01 5.575000000000000178e+00 1.745000000000000000e+02 1.100000000000000066e-03
1.999990000000000101e-01 5.876000000000000334e+00 1.824000000000000057e+02 1.100000000000000066e-03
2.249990000000000046e-01 6.232999999999999652e+00 1.915000000000000000e+02 1.200000000000000112e-03
2.499989999999999990e-01 6.570000000000000284e+00 1.999000000000000057e+02 1.300000000000000157e-03
2.749990000000000490e-01 6.891000000000000014e+00 2.075999999999999943e+02 1.300000000000000157e-03
2.999990000000000157e-01 7.197000000000000064e+00 2.148000000000000114e+02 1.399999999999999986e-03
3.249990000000000379e-01 7.490999999999999659e+00 2.214000000000000057e+02 1.500000000000000031e-03
3.499990000000000046e-01 7.774000000000000021e+00 2.276999999999999886e+02 1.500000000000000031e-03
3.749990000000000268e-01 8.045999999999999375e+00 2.335999999999999943e+02 1.600000000000000077e-03
3.999990000000000490e-01 8.310000000000000497e+00 2.391999999999999886e+02 1.600000000000000077e-03
4.499990000000000379e-01 8.814999999999999503e+00 2.495000000000000000e+02 1.800000000000000168e-03
4.999990000000000268e-01 9.291000000000000369e+00 2.588000000000000114e+02 1.899999999999999996e-03
5.499990000000000157e-01 9.744999999999999218e+00 2.673999999999999773e+02 2.000000000000000042e-03
5.999990000000000601e-01 1.017999999999999972e+01 2.751999999999999886e+02 2.100000000000000304e-03
6.499989999999999934e-01 1.058999999999999986e+01 2.823999999999999773e+02 2.200000000000000133e-03
6.999990000000000379e-01 1.099000000000000021e+01 2.891000000000000227e+02 2.299999999999999961e-03
7.999990000000000157e-01 1.175000000000000000e+01 3.013000000000000114e+02 2.500000000000000052e-03
8.999989999999999934e-01 1.247000000000000064e+01 3.118999999999999773e+02 2.700000000000000143e-03
9.999990000000000823e-01 1.314000000000000057e+01 3.215000000000000000e+02 2.900000000000000234e-03
1.100000000000000089e+00 1.377999999999999936e+01 3.300000000000000000e+02 3.100000000000000325e-03
1.199999999999999956e+00 1.439000000000000057e+01 3.376999999999999886e+02 3.200000000000000153e-03
1.300000000000000044e+00 1.498000000000000043e+01 3.448000000000000114e+02 3.400000000000000244e-03
1.399999999999999911e+00 1.555000000000000071e+01 3.511999999999999886e+02 3.600000000000000335e-03
1.500000000000000000e+00 1.608999999999999986e+01 3.571999999999999886e+02 3.799999999999999992e-03
1.600000000000000089e+00 1.662000000000000099e+01 3.626000000000000227e+02 3.900000000000000255e-03
1.699999999999999956e+00 1.712999999999999901e+01 3.676999999999999886e+02 4.100000000000000346e-03
1.800000000000000044e+00 1.762999999999999901e+01 3.723999999999999773e+02 4.300000000000000003e-03
2.000000000000000000e+00 1.857999999999999829e+01 3.808999999999999773e+02 4.599999999999999922e-03
2.250000000000000000e+00 1.971000000000000085e+01 3.901000000000000227e+02 5.000000000000000104e-03
2.500000000000000000e+00 2.078000000000000114e+01 3.978999999999999773e+02 5.400000000000000286e-03
2.750000000000000000e+00 2.178999999999999915e+01 4.046999999999999886e+02 5.800000000000000468e-03
3.000000000000000000e+00 2.276000000000000156e+01 4.106000000000000227e+02 6.100000000000000387e-03
3.250000000000000000e+00 2.369000000000000128e+01 4.158000000000000114e+02 6.500000000000000569e-03
3.500000000000000000e+00 2.458999999999999986e+01 4.203999999999999773e+02 6.900000000000000751e-03
3.750000000000000000e+00 2.544999999999999929e+01 4.243999999999999773e+02 7.300000000000000065e-03
4.000000000000000000e+00 2.628000000000000114e+01 4.278999999999999773e+02 7.599999999999999985e-03
4.500000000000000000e+00 2.787999999999999901e+01 4.338999999999999773e+02 8.400000000000001216e-03
5.000000000000000000e+00 2.939000000000000057e+01 4.386000000000000227e+02 9.100000000000000450e-03
5.500000000000000000e+00 3.082000000000000028e+01 4.423000000000000114e+02 9.799999999999999684e-03
6.000000000000000000e+00 3.218999999999999773e+01 4.451999999999999886e+02 1.060000000000000005e-02
6.500000000000000000e+00 3.350999999999999801e+01 4.475000000000000000e+02 1.130000000000000102e-02
7.000000000000000000e+00 3.477000000000000313e+01 4.491999999999999886e+02 1.200000000000000025e-02
8.000000000000000000e+00 3.717000000000000171e+01 4.513000000000000114e+02 1.340000000000000045e-02
9.000000000000000000e+00 3.942999999999999972e+01 4.521999999999999886e+02 1.490000000000000005e-02
1.000000000000000000e+01 4.156000000000000227e+01 4.520000000000000000e+02 1.630000000000000199e-02
1.100000000000000000e+01 4.359000000000000341e+01 4.511999999999999886e+02 1.779999999999999985e-02
1.200000000000000000e+01 4.553000000000000114e+01 4.498000000000000114e+02 1.920000000000000179e-02
1.300000000000000000e+01 4.739000000000000057e+01 4.481000000000000227e+02 2.069999999999999965e-02
1.400000000000000000e+01 4.917999999999999972e+01 4.458999999999999773e+02 2.210000000000000159e-02
1.500000000000000000e+01 5.090999999999999659e+01 4.436000000000000227e+02 2.359999999999999945e-02
1.600000000000000000e+01 5.257999999999999829e+01 4.410000000000000000e+02 2.510000000000000078e-02
1.700000000000000000e+01 5.420000000000000284e+01 4.383999999999999773e+02 2.660000000000000211e-02
1.800000000000000000e+01 5.577000000000000313e+01 4.356000000000000227e+02 2.809999999999999998e-02
2.000000000000000000e+01 5.878999999999999915e+01 4.298000000000000114e+02 3.110000000000000264e-02
2.250000000000000000e+01 6.235999999999999943e+01 4.223000000000000114e+02 3.490000000000000047e-02
2.500000000000000000e+01 6.573000000000000398e+01 4.146999999999999886e+02 3.880000000000000115e-02
2.750000000000000000e+01 6.893999999999999773e+01 4.071999999999999886e+02 4.280000000000000471e-02
3.000000000000000000e+01 7.201000000000000512e+01 3.998999999999999773e+02 4.680000000000000132e-02
3.250000000000000000e+01 7.495000000000000284e+01 3.926999999999999886e+02 5.090000000000000080e-02
3.500000000000000000e+01 7.779000000000000625e+01 3.858000000000000114e+02 5.500000000000000028e-02
3.750000000000000000e+01 8.051999999999999602e+01 3.790000000000000000e+02 5.920000000000000262e-02
4.000000000000000000e+01 8.315999999999999659e+01 3.725000000000000000e+02 6.339999999999999802e-02
4.500000000000000000e+01 8.820999999999999375e+01 3.601000000000000227e+02 7.200000000000000844e-02
5.000000000000000000e+01 9.601999999999999602e+01 3.485000000000000000e+02 8.080000000000001070e-02
5.500000000000000000e+01 1.062000000000000028e+02 3.378000000000000114e+02 8.970000000000000195e-02
6.000000000000000000e+01 1.142000000000000028e+02 3.276999999999999886e+02 9.860000000000000708e-02
6.500000000000000000e+01 1.207000000000000028e+02 3.183000000000000114e+02 1.076000000000000012e-01
7.000000000000000000e+01 1.259000000000000057e+02 3.095000000000000000e+02 1.168000000000000010e-01
8.000000000000000000e+01 1.341999999999999886e+02 2.936000000000000227e+02 1.354000000000000203e-01
9.000000000000000000e+01 1.405999999999999943e+02 2.793999999999999773e+02 1.546000000000000152e-01
1.000000000000000000e+02 1.461999999999999886e+02 2.668000000000000114e+02 1.743000000000000105e-01
1.100000000000000000e+02 1.514000000000000057e+02 2.554000000000000057e+02 1.943000000000000005e-01
1.200000000000000000e+02 1.565000000000000000e+02 2.451999999999999886e+02 2.148000000000000187e-01
1.300000000000000000e+02 1.615999999999999943e+02 2.358000000000000114e+02 2.356000000000000039e-01
1.400000000000000000e+02 1.668000000000000114e+02 2.273000000000000114e+02 2.567000000000000393e-01
1.500000000000000000e+02 1.720000000000000000e+02 2.195000000000000000e+02 2.781000000000000139e-01
1.600000000000000000e+02 1.775000000000000000e+02 2.121999999999999886e+02 2.996000000000000330e-01
1.700000000000000000e+02 1.830999999999999943e+02 2.055999999999999943e+02 3.214000000000000190e-01
1.800000000000000000e+02 1.888000000000000114e+02 1.993000000000000114e+02 3.432000000000000051e-01
2.000000000000000000e+02 2.005999999999999943e+02 1.881999999999999886e+02 3.870999999999999996e-01
2.250000000000000000e+02 2.159000000000000057e+02 1.760999999999999943e+02 4.420000000000000040e-01
2.500000000000000000e+02 2.318000000000000114e+02 1.656999999999999886e+02 4.967000000000000304e-01
2.750000000000000000e+02 2.480999999999999943e+02 1.565999999999999943e+02 5.509000000000000563e-01
3.000000000000000000e+02 2.646000000000000227e+02 1.485999999999999943e+02 6.043000000000000593e-01
3.250000000000000000e+02 2.813000000000000114e+02 1.415000000000000000e+02 6.568000000000000504e-01
3.500000000000000000e+02 2.981999999999999886e+02 1.351999999999999886e+02 7.084000000000000297e-01
3.750000000000000000e+02 3.150000000000000000e+02 1.295000000000000000e+02 7.589000000000000190e-01
4.000000000000000000e+02 3.318999999999999773e+02 1.242999999999999972e+02 8.084000000000000075e-01
4.500000000000000000e+02 3.656000000000000227e+02 1.152000000000000028e+02 9.042000000000000037e-01
5.000000000000000000e+02 3.990000000000000000e+02 1.075000000000000000e+02 9.958000000000000185e-01
5.500000000000000000e+02 4.321000000000000227e+02 1.009000000000000057e+02 1.080000000000000071e+00
6.000000000000000000e+02 4.646999999999999886e+02 9.514000000000000057e+01 1.169999999999999929e+00
6.500000000000000000e+02 4.968000000000000114e+02 9.009000000000000341e+01 1.250000000000000000e+00
7.000000000000000000e+02 5.283999999999999773e+02 8.562000000000000455e+01 1.320000000000000062e+00
8.000000000000000000e+02 5.901000000000000227e+02 7.801999999999999602e+01 1.469999999999999973e+00
9.000000000000000000e+02 6.497999999999999545e+02 7.179000000000000625e+01 1.610000000000000098e+00
1.000000000000000000e+03 7.076000000000000227e+02 6.659000000000000341e+01 1.729999999999999982e+00
1.100000000000000000e+03 7.636000000000000227e+02 6.215999999999999659e+01 1.850000000000000089e+00
1.200000000000000000e+03 8.180000000000000000e+02 5.835000000000000142e+01 1.959999999999999964e+00
1.300000000000000000e+03 8.707000000000000455e+02 5.502000000000000313e+01 2.069999999999999840e+00
1.400000000000000000e+03 9.218999999999999773e+02 5.209000000000000341e+01 2.169999999999999929e+00
1.500000000000000000e+03 9.717000000000000455e+02 4.949000000000000199e+01 2.270000000000000018e+00
1.600000000000000000e+03 1.020000000000000000e+03 4.715999999999999659e+01 2.359999999999999876e+00
1.700000000000000000e+03 1.067000000000000000e+03 4.506000000000000227e+01 2.450000000000000178e+00
1.800000000000000000e+03 1.113000000000000000e+03 4.315999999999999659e+01 2.529999999999999805e+00
2.000000000000000000e+03 1.202000000000000000e+03 3.984000000000000341e+01 2.700000000000000178e+00
2.250000000000000000e+03 1.307000000000000000e+03 3.640999999999999659e+01 2.890000000000000124e+00
2.500000000000000000e+03 1.406000000000000000e+03 3.357000000000000028e+01 3.060000000000000053e+00
2.750000000000000000e+03 1.499000000000000000e+03 3.117999999999999972e+01 3.229999999999999982e+00
3.000000000000000000e+03 1.588000000000000000e+03 2.912999999999999901e+01 3.379999999999999893e+00
3.250000000000000000e+03 1.671000000000000000e+03 2.735999999999999943e+01 3.529999999999999805e+00
3.500000000000000000e+03 1.751000000000000000e+03 2.580999999999999872e+01 3.669999999999999929e+00
3.750000000000000000e+03 1.827000000000000000e+03 2.444000000000000128e+01 3.810000000000000053e+00
4.000000000000000000e+03 1.899000000000000000e+03 2.321999999999999886e+01 3.939999999999999947e+00
4.500000000000000000e+03 2.034000000000000000e+03 2.114000000000000057e+01 4.190000000000000391e+00
5.000000000000000000e+03 2.158000000000000000e+03 1.942999999999999972e+01 4.419999999999999929e+00
5.500000000000000000e+03 2.273000000000000000e+03 1.798999999999999844e+01 4.650000000000000355e+00
6.000000000000000000e+03 2.381000000000000000e+03 1.676999999999999957e+01 4.860000000000000320e+00
6.500000000000000000e+03 2.482000000000000000e+03 1.572000000000000064e+01 5.059999999999999609e+00
7.000000000000000000e+03 2.578000000000000000e+03 1.480000000000000071e+01 5.259999999999999787e+00
8.000000000000000000e+03 2.757000000000000000e+03 1.325999999999999979e+01 5.629999999999999893e+00
9.000000000000000000e+03 2.917000000000000000e+03 1.203999999999999915e+01 5.980000000000000426e+00
1.000000000000000000e+04 3.059000000000000000e+03 1.103999999999999915e+01 6.309999999999999609e+00
