# Energy(keV)    dEe/dx(keV/micro_m)  dEn/dx(keV/micro_m)  x(micro_m)
9.999990000000000268e-03 1.530999999999999917e+00 3.725999999999999801e+01 4.000000000000000192e-04
1.099989999999999996e-02 1.606000000000000094e+00 3.943999999999999773e+01 4.000000000000000192e-04
1.199990000000000084e-02 1.677000000000000046e+00 4.153000000000000114e+01 4.000000000000000192e-04
1.299990000000000000e-02 1.745000000000000107e+00 4.353999999999999915e+01 4.000000000000000192e-04
1.399990000000000089e-02 1.810999999999999943e+00 4.547999999999999687e+01 4.000000000000000192e-04
1.499990000000000004e-02 1.875000000000000000e+00 4.735999999999999943e+01 4.000000000000000192e-04
1.599990000000000093e-02 1.935999999999999943e+00 4.917999999999999972e+01 4.000000000000000192e-04
1.699990000000000182e-02 1.995999999999999996e+00 5.093999999999999773e+01 5.000000000000000104e-04
1.799989999999999923e-02 2.053999999999999826e+00 5.264999999999999858e+01 5.000000000000000104e-04
1.999990000000000101e-02 2.165000000000000036e+00 5.593999999999999773e+01 5.000000000000000104e-04
2.249989999999999976e-02 2.295999999999999819e+00 5.982999999999999829e+01 5.000000000000000104e-04
2.499990000000000198e-02 2.419999999999999929e+00 6.350999999999999801e+01 5.000000000000000104e-04
2.749990000000000073e-02 2.539000000000000146e+00 6.701000000000000512e+01 6.000000000000000559e-04
2.999989999999999948e-02 2.650999999999999801e+00 7.034000000000000341e+01 6.000000000000000559e-04
3.249989999999999823e-02 2.759999999999999787e+00 7.354000000000000625e+01 6.000000000000000559e-04
3.499990000000000046e-02 2.863999999999999879e+00 7.659999999999999432e+01 6.000000000000000559e-04
3.749989999999999574e-02 2.963999999999999968e+00 7.954999999999999716e+01 6.000000000000000559e-04
3.999989999999999796e-02 3.061999999999999833e+00 8.240000000000000568e+01 6.000000000000000559e-04
4.499989999999999546e-02 3.246999999999999886e+00 8.781999999999999318e+01 6.999999999999999929e-04
4.999989999999999990e-02 3.423000000000000043e+00 9.290999999999999659e+01 6.999999999999999929e-04
5.499989999999999740e-02 3.589999999999999858e+00 9.773000000000000398e+01 6.999999999999999929e-04
5.999989999999999490e-02 3.750000000000000000e+00 1.022999999999999972e+02 8.000000000000000383e-04
6.499989999999999934e-02 3.903000000000000025e+00 1.067000000000000028e+02 8.000000000000000383e-04
6.999990000000000379e-02 4.049999999999999822e+00 1.107999999999999972e+02 8.000000000000000383e-04
7.999989999999999879e-02 4.330000000000000071e+00 1.187000000000000028e+02 9.000000000000000838e-04
8.999989999999999379e-02 4.591999999999999638e+00 1.259000000000000057e+02 9.000000000000000838e-04
9.999990000000000268e-02 4.841000000000000192e+00 1.326999999999999886e+02 1.000000000000000021e-03
1.100000000000000006e-01 5.076999999999999957e+00 1.390999999999999943e+02 1.000000000000000021e-03
1.199999999999999956e-01 5.302999999999999936e+00 1.451999999999999886e+02 1.000000000000000021e-03
1.300000000000000044e-01 5.519999999999999574e+00 1.509000000000000057e+02 1.100000000000000066e-03
1.399989999999999846e-01 5.727999999999999758e+00 1.563000000000000114e+02 1.100000000000000066e-03
1.499989999999999934e-01 5.929000000000000270e+00 1.615000000000000000e+02 1.200000000000000112e-03
1.599990000000000023e-01 6.123000000000000220e+00 1.665000000000000000e+02 1.200000000000000112e-03
1.699990000000000112e-01 6.312000000000000277e+00 1.711999999999999886e+02 1.200000000000000112e-03
1.799989999999999923e-01 6.495000000000000107e+00 1.758000000000000114e+02 1.300000000000000157e-03
1.999990000000000101e-01 6.846000000000000085e+00 1.845000000000000000e+02 1.300000000000000157e-03
2.249990000000000046e-01 7.261999999999999567e+00 1.945000000000000000e+02 1.399999999999999986e-03
2.499989999999999990e-01 7.653999999999999915e+00 2.038000000000000114e+02 1.500000000000000031e-03
2.749990000000000490e-01 8.028000000000000469e+00 2.124000000000000057e+02 1.600000000000000077e-03
2.999990000000000157e-01 8.384999999999999787e+00 2.204000000000000057e+02 1.600000000000000077e-03
3.249990000000000379e-01 8.727000000000000313e+00 2.280000000000000000e+02 1.700000000000000122e-03
3.499990000000000046e-01 9.057000000000000384e+00 2.350999999999999943e+02 1.800000000000000168e-03
3.749990000000000268e-01 9.375000000000000000e+00 2.419000000000000057e+02 1.800000000000000168e-03
3.999990000000000490e-01 9.682000000000000384e+00 2.483000000000000114e+02 1.899999999999999996e-03
4.499990000000000379e-01 1.026999999999999957e+01 2.601999999999999886e+02 2.000000000000000042e-03
4.999990000000000268e-01 1.083000000000000007e+01 2.711000000000000227e+02 2.100000000000000304e-03
5.499990000000000157e-01 1.134999999999999964e+01 2.811999999999999886e+02 2.200000000000000133e-03
5.999990000000000601e-01 1.185999999999999943e+01 2.905000000000000000e+02 2.299999999999999961e-03
6.499989999999999934e-01 1.233999999999999986e+01 2.991999999999999886e+02 2.500000000000000052e-03
6.999990000000000379e-01 1.281000000000000050e+01 3.073000000000000114e+02 2.600000000000000314e-03
7.999990000000000157e-01 1.368999999999999950e+01 3.221000000000000227e+02 2.799999999999999972e-03
8.999989999999999934e-01 1.451999999999999957e+01 3.353000000000000114e+02 3.000000000000000062e-03
9.999990000000000823e-01 1.531000000000000050e+01 3.471999999999999886e+02 3.100000000000000325e-03
1.100000000000000089e+00 1.605999999999999872e+01 3.581000000000000227e+02 3.299999999999999982e-03
1.199999999999999956e+00 1.676999999999999957e+01 3.680000000000000000e+02 3.500000000000000073e-03
1.300000000000000044e+00 1.746000000000000085e+01 3.771999999999999886e+02 3.700000000000000164e-03
1.399999999999999911e+00 1.812000000000000099e+01 3.856000000000000227e+02 3.799999999999999992e-03
1.500000000000000000e+00 1.875000000000000000e+01 3.935000000000000000e+02 4.000000000000000083e-03
1.600000000000000089e+00 1.937000000000000099e+01 4.008000000000000114e+02 4.200000000000000608e-03
1.699999999999999956e+00 1.996000000000000085e+01 4.076999999999999886e+02 4.300000000000000003e-03
1.800000000000000044e+00 2.053999999999999915e+01 4.141000000000000227e+02 4.500000000000000527e-03
2.000000000000000000e+00 2.164999999999999858e+01 4.258999999999999773e+02 4.800000000000000447e-03
2.250000000000000000e+00 2.296999999999999886e+01 4.388999999999999773e+02 5.200000000000000629e-03
2.500000000000000000e+00 2.421000000000000085e+01 4.503000000000000114e+02 5.599999999999999943e-03
2.750000000000000000e+00 2.539000000000000057e+01 4.603999999999999773e+02 5.899999999999999863e-03
3.000000000000000000e+00 2.651999999999999957e+01 4.695000000000000000e+02 6.300000000000000044e-03
3.250000000000000000e+00 2.760000000000000142e+01 4.776000000000000227e+02 6.700000000000000226e-03
3.500000000000000000e+00 2.864999999999999858e+01 4.850000000000000000e+02 7.000000000000000146e-03
3.750000000000000000e+00 2.964999999999999858e+01 4.916000000000000227e+02 7.300000000000000065e-03
4.000000000000000000e+00 3.062000000000000099e+01 4.976999999999999886e+02 7.700000000000000247e-03
4.500000000000000000e+00 3.247999999999999687e+01 5.083999999999999773e+02 8.400000000000001216e-03
5.000000000000000000e+00 3.424000000000000199e+01 5.173999999999999773e+02 9.000000000000001055e-03
5.500000000000000000e+00 3.590999999999999659e+01 5.250000000000000000e+02 9.700000000000000289e-03
6.000000000000000000e+00 3.750999999999999801e+01 5.316000000000000227e+02 1.030000000000000013e-02
6.500000000000000000e+00 3.903999999999999915e+01 5.372999999999999545e+02 1.100000000000000110e-02
7.000000000000000000e+00 4.050999999999999801e+01 5.422000000000000455e+02 1.160000000000000094e-02
8.000000000000000000e+00 4.331000000000000227e+01 5.501000000000000227e+02 1.290000000000000001e-02
9.000000000000000000e+00 4.593999999999999773e+01 5.561000000000000227e+02 1.410000000000000142e-02
1.000000000000000000e+01 4.842999999999999972e+01 5.605000000000000000e+02 1.540000000000000049e-02
1.100000000000000000e+01 5.078999999999999915e+01 5.637999999999999545e+02 1.660000000000000017e-02
1.200000000000000000e+01 5.304999999999999716e+01 5.661000000000000227e+02 1.779999999999999985e-02
1.300000000000000000e+01 5.521999999999999886e+01 5.677000000000000455e+02 1.899999999999999953e-02
1.400000000000000000e+01 5.731000000000000227e+01 5.686000000000000227e+02 2.030000000000000207e-02
1.500000000000000000e+01 5.932000000000000028e+01 5.690000000000000000e+02 2.150000000000000175e-02
1.600000000000000000e+01 6.125999999999999801e+01 5.690000000000000000e+02 2.270000000000000143e-02
1.700000000000000000e+01 6.314999999999999858e+01 5.687000000000000455e+02 2.390000000000000110e-02
1.800000000000000000e+01 6.498000000000000398e+01 5.680000000000000000e+02 2.510000000000000078e-02
2.000000000000000000e+01 6.850000000000000000e+01 5.658999999999999773e+02 2.760000000000000300e-02
2.250000000000000000e+01 7.265999999999999659e+01 5.622999999999999545e+02 3.070000000000000159e-02
2.500000000000000000e+01 7.659000000000000341e+01 5.578999999999999773e+02 3.370000000000000079e-02
2.750000000000000000e+01 8.032999999999999829e+01 5.530000000000000000e+02 3.679999999999999938e-02
3.000000000000000000e+01 8.390999999999999659e+01 5.477999999999999545e+02 4.000000000000000083e-02
3.250000000000000000e+01 8.734000000000000341e+01 5.422999999999999545e+02 4.309999999999999942e-02
3.500000000000000000e+01 9.064000000000000057e+01 5.366000000000000227e+02 4.630000000000000088e-02
3.750000000000000000e+01 9.381999999999999318e+01 5.308999999999999773e+02 4.950000000000000233e-02
4.000000000000000000e+01 9.690000000000000568e+01 5.252000000000000455e+02 5.270000000000000379e-02
4.500000000000000000e+01 1.027999999999999972e+02 5.137999999999999545e+02 5.920000000000000262e-02
5.000000000000000000e+01 1.084000000000000057e+02 5.026999999999999886e+02 6.590000000000000024e-02
5.500000000000000000e+01 1.137000000000000028e+02 4.918999999999999773e+02 7.259999999999999787e-02
6.000000000000000000e+01 1.187000000000000028e+02 4.815000000000000000e+02 7.939999999999999836e-02
6.500000000000000000e+01 1.232999999999999972e+02 4.713999999999999773e+02 8.619999999999999885e-02
7.000000000000000000e+01 1.270999999999999943e+02 4.618000000000000114e+02 9.320000000000000506e-02
8.000000000000000000e+01 1.341999999999999886e+02 4.438000000000000114e+02 1.074000000000000093e-01
9.000000000000000000e+01 1.409000000000000057e+02 4.271999999999999886e+02 1.220000000000000112e-01
1.000000000000000000e+02 1.471999999999999886e+02 4.118999999999999773e+02 1.368999999999999939e-01
1.100000000000000000e+02 1.533000000000000114e+02 3.978999999999999773e+02 1.521000000000000130e-01
1.200000000000000000e+02 1.590999999999999943e+02 3.848999999999999773e+02 1.675999999999999990e-01
1.300000000000000000e+02 1.646999999999999886e+02 3.728999999999999773e+02 1.833000000000000185e-01
1.400000000000000000e+02 1.701999999999999886e+02 3.616999999999999886e+02 1.992000000000000159e-01
1.500000000000000000e+02 1.756999999999999886e+02 3.513000000000000114e+02 2.154000000000000081e-01
1.600000000000000000e+02 1.810000000000000000e+02 3.415000000000000000e+02 2.317000000000000171e-01
1.700000000000000000e+02 1.864000000000000057e+02 3.323999999999999773e+02 2.482000000000000040e-01
1.800000000000000000e+02 1.916999999999999886e+02 3.238999999999999773e+02 2.649000000000000243e-01
2.000000000000000000e+02 2.023000000000000114e+02 3.081999999999999886e+02 2.986000000000000321e-01
2.250000000000000000e+02 2.155999999999999943e+02 2.910000000000000000e+02 3.414000000000000368e-01
2.500000000000000000e+02 2.290000000000000000e+02 2.760000000000000000e+02 3.845999999999999974e-01
2.750000000000000000e+02 2.424000000000000057e+02 2.626000000000000227e+02 4.281000000000000361e-01
3.000000000000000000e+02 2.560000000000000000e+02 2.506999999999999886e+02 4.716000000000000192e-01
3.250000000000000000e+02 2.695000000000000000e+02 2.400000000000000000e+02 5.151000000000000023e-01
3.500000000000000000e+02 2.831000000000000227e+02 2.303000000000000114e+02 5.585999999999999854e-01
3.750000000000000000e+02 2.966999999999999886e+02 2.215000000000000000e+02 6.017000000000000126e-01
4.000000000000000000e+02 3.101999999999999886e+02 2.134000000000000057e+02 6.446000000000000618e-01
4.500000000000000000e+02 3.371000000000000227e+02 1.991999999999999886e+02 7.294000000000000483e-01
5.000000000000000000e+02 3.636999999999999886e+02 1.870000000000000000e+02 8.125000000000000000e-01
5.500000000000000000e+02 3.898999999999999773e+02 1.764000000000000057e+02 8.938000000000000389e-01
6.000000000000000000e+02 4.156000000000000227e+02 1.670999999999999943e+02 9.732000000000000650e-01
6.500000000000000000e+02 4.408999999999999773e+02 1.589000000000000057e+02 1.050000000000000044e+00
7.000000000000000000e+02 4.656000000000000227e+02 1.515999999999999943e+02 1.129999999999999893e+00
8.000000000000000000e+02 5.135000000000000000e+02 1.390000000000000000e+02 1.270000000000000018e+00
9.000000000000000000e+02 5.593999999999999773e+02 1.285000000000000000e+02 1.409999999999999920e+00
1.000000000000000000e+03 6.033999999999999773e+02 1.197999999999999972e+02 1.540000000000000036e+00
1.100000000000000000e+03 6.457999999999999545e+02 1.122000000000000028e+02 1.669999999999999929e+00
1.200000000000000000e+03 6.867000000000000455e+02 1.057000000000000028e+02 1.790000000000000036e+00
1.300000000000000000e+03 7.262999999999999545e+02 9.998000000000000398e+01 1.909999999999999920e+00
1.400000000000000000e+03 7.646000000000000227e+02 9.490999999999999659e+01 2.020000000000000018e+00
1.500000000000000000e+03 8.018999999999999773e+02 9.039000000000000057e+01 2.129999999999999893e+00
1.600000000000000000e+03 8.382000000000000455e+02 8.632999999999999829e+01 2.240000000000000213e+00
1.700000000000000000e+03 8.737000000000000455e+02 8.265999999999999659e+01 2.339999999999999858e+00
1.800000000000000000e+03 9.085000000000000000e+02 7.931999999999999318e+01 2.439999999999999947e+00
2.000000000000000000e+03 9.760000000000000000e+02 7.348000000000000398e+01 2.629999999999999893e+00
2.250000000000000000e+03 1.058000000000000000e+03 6.739000000000000057e+01 2.850000000000000089e+00
2.500000000000000000e+03 1.136000000000000000e+03 6.232999999999999829e+01 3.060000000000000053e+00
2.750000000000000000e+03 1.213000000000000000e+03 5.803999999999999915e+01 3.259999999999999787e+00
3.000000000000000000e+03 1.288000000000000000e+03 5.435999999999999943e+01 3.450000000000000178e+00
3.250000000000000000e+03 1.362000000000000000e+03 5.115999999999999659e+01 3.620000000000000107e+00
3.500000000000000000e+03 1.434000000000000000e+03 4.835999999999999943e+01 3.790000000000000036e+00
3.750000000000000000e+03 1.504000000000000000e+03 4.586999999999999744e+01 3.950000000000000178e+00
4.000000000000000000e+03 1.574000000000000000e+03 4.364999999999999858e+01 4.110000000000000320e+00
4.500000000000000000e+03 1.710000000000000000e+03 3.985000000000000142e+01 4.400000000000000355e+00
5.000000000000000000e+03 1.841000000000000000e+03 3.671000000000000085e+01 4.669999999999999929e+00
5.500000000000000000e+03 1.968000000000000000e+03 3.406000000000000227e+01 4.929999999999999716e+00
6.000000000000000000e+03 2.092000000000000000e+03 3.180999999999999872e+01 5.169999999999999929e+00
6.500000000000000000e+03 2.212000000000000000e+03 2.985999999999999943e+01 5.400000000000000355e+00
7.000000000000000000e+03 2.329000000000000000e+03 2.814999999999999858e+01 5.610000000000000320e+00
8.000000000000000000e+03 2.555000000000000000e+03 2.530000000000000071e+01 6.009999999999999787e+00
9.000000000000000000e+03 2.772000000000000000e+03 2.301000000000000156e+01 6.379999999999999893e+00
1.000000000000000000e+04 2.981000000000000000e+03 2.114000000000000057e+01 6.730000000000000426e+00
