# Energy(keV)    dEe/dx(keV/micro_m)  dEn/dx(keV/micro_m)  x(micro_m)
9.999990000000000268e-03 2.420999999999999819e+00 4.186999999999999744e+01 3.000000000000000279e-04
1.099989999999999996e-02 2.539000000000000146e+00 4.428999999999999915e+01 3.000000000000000279e-04
1.199990000000000084e-02 2.652000000000000135e+00 4.660000000000000142e+01 3.000000000000000279e-04
1.299990000000000000e-02 2.759999999999999787e+00 4.882000000000000028e+01 3.000000000000000279e-04
1.399990000000000089e-02 2.863999999999999879e+00 5.096999999999999886e+01 3.000000000000000279e-04
1.499990000000000004e-02 2.964999999999999858e+00 5.303999999999999915e+01 3.000000000000000279e-04
1.599990000000000093e-02 3.061999999999999833e+00 5.503999999999999915e+01 4.000000000000000192e-04
1.699990000000000182e-02 3.156000000000000139e+00 5.697999999999999687e+01 4.000000000000000192e-04
1.799989999999999923e-02 3.248000000000000220e+00 5.885999999999999943e+01 4.000000000000000192e-04
1.999990000000000101e-02 3.423000000000000043e+00 6.247999999999999687e+01 4.000000000000000192e-04
2.249989999999999976e-02 3.630999999999999783e+00 6.675000000000000000e+01 4.000000000000000192e-04
2.499990000000000198e-02 3.826999999999999957e+00 7.076999999999999602e+01 4.000000000000000192e-04
2.749990000000000073e-02 4.014000000000000234e+00 7.459999999999999432e+01 4.000000000000000192e-04
2.999989999999999948e-02 4.192999999999999616e+00 7.823999999999999488e+01 5.000000000000000104e-04
3.249989999999999823e-02 4.363999999999999879e+00 8.171999999999999886e+01 5.000000000000000104e-04
3.499990000000000046e-02 4.527999999999999581e+00 8.506000000000000227e+01 5.000000000000000104e-04
3.749989999999999574e-02 4.687000000000000277e+00 8.826999999999999602e+01 5.000000000000000104e-04
3.999989999999999796e-02 4.841000000000000192e+00 9.135999999999999943e+01 5.000000000000000104e-04
4.499989999999999546e-02 5.134999999999999787e+00 9.723000000000000398e+01 5.000000000000000104e-04
4.999989999999999990e-02 5.413000000000000256e+00 1.027000000000000028e+02 6.000000000000000559e-04
5.499989999999999740e-02 5.676999999999999602e+00 1.079000000000000057e+02 6.000000000000000559e-04
5.999989999999999490e-02 5.929000000000000270e+00 1.129000000000000057e+02 6.000000000000000559e-04
6.499989999999999934e-02 6.171000000000000263e+00 1.175999999999999943e+02 6.000000000000000559e-04
6.999990000000000379e-02 6.403999999999999915e+00 1.220999999999999943e+02 6.999999999999999929e-04
7.999989999999999879e-02 6.846000000000000085e+00 1.305000000000000000e+02 6.999999999999999929e-04
8.999989999999999379e-02 7.261999999999999567e+00 1.381999999999999886e+02 6.999999999999999929e-04
9.999990000000000268e-02 7.655000000000000249e+00 1.455000000000000000e+02 8.000000000000000383e-04
1.100000000000000006e-01 8.028000000000000469e+00 1.523000000000000114e+02 8.000000000000000383e-04
1.199999999999999956e-01 8.384999999999999787e+00 1.586999999999999886e+02 9.000000000000000838e-04
1.300000000000000044e-01 8.727999999999999758e+00 1.646999999999999886e+02 9.000000000000000838e-04
1.399989999999999846e-01 9.057000000000000384e+00 1.705000000000000000e+02 9.000000000000000838e-04
1.499989999999999934e-01 9.375000000000000000e+00 1.760000000000000000e+02 1.000000000000000021e-03
1.599990000000000023e-01 9.682000000000000384e+00 1.811999999999999886e+02 1.000000000000000021e-03
1.699990000000000112e-01 9.980000000000000426e+00 1.861999999999999886e+02 1.000000000000000021e-03
1.799989999999999923e-01 1.026999999999999957e+01 1.910000000000000000e+02 1.000000000000000021e-03
1.999990000000000101e-01 1.083000000000000007e+01 2.000999999999999943e+02 1.100000000000000066e-03
2.249990000000000046e-01 1.148000000000000043e+01 2.105000000000000000e+02 1.200000000000000112e-03
2.499989999999999990e-01 1.209999999999999964e+01 2.201999999999999886e+02 1.200000000000000112e-03
2.749990000000000490e-01 1.268999999999999950e+01 2.290999999999999943e+02 1.300000000000000157e-03
2.999990000000000157e-01 1.325999999999999979e+01 2.374000000000000057e+02 1.399999999999999986e-03
3.249990000000000379e-01 1.380000000000000071e+01 2.451999999999999886e+02 1.399999999999999986e-03
3.499990000000000046e-01 1.432000000000000028e+01 2.525999999999999943e+02 1.500000000000000031e-03
3.749990000000000268e-01 1.482000000000000028e+01 2.595000000000000000e+02 1.500000000000000031e-03
3.999990000000000490e-01 1.531000000000000050e+01 2.661000000000000227e+02 1.600000000000000077e-03
4.499990000000000379e-01 1.623999999999999844e+01 2.781999999999999886e+02 1.700000000000000122e-03
4.999990000000000268e-01 1.712000000000000099e+01 2.893000000000000114e+02 1.800000000000000168e-03
5.499990000000000157e-01 1.794999999999999929e+01 2.995000000000000000e+02 1.899999999999999996e-03
5.999990000000000601e-01 1.875000000000000000e+01 3.088000000000000114e+02 2.000000000000000042e-03
6.499989999999999934e-01 1.951999999999999957e+01 3.176000000000000227e+02 2.100000000000000304e-03
6.999990000000000379e-01 2.025000000000000000e+01 3.256999999999999886e+02 2.200000000000000133e-03
7.999990000000000157e-01 2.164999999999999858e+01 3.403999999999999773e+02 2.400000000000000223e-03
8.999989999999999934e-01 2.296999999999999886e+01 3.535000000000000000e+02 2.500000000000000052e-03
9.999990000000000823e-01 2.421000000000000085e+01 3.651999999999999886e+02 2.700000000000000143e-03
1.100000000000000089e+00 2.539000000000000057e+01 3.758000000000000114e+02 2.900000000000000234e-03
1.199999999999999956e+00 2.651999999999999957e+01 3.855000000000000000e+02 3.000000000000000062e-03
1.300000000000000044e+00 2.760000000000000142e+01 3.943999999999999773e+02 3.200000000000000153e-03
1.399999999999999911e+00 2.864000000000000057e+01 4.025000000000000000e+02 3.299999999999999982e-03
1.500000000000000000e+00 2.964999999999999858e+01 4.101000000000000227e+02 3.500000000000000073e-03
1.600000000000000089e+00 3.062000000000000099e+01 4.171000000000000227e+02 3.600000000000000335e-03
1.699999999999999956e+00 3.155999999999999872e+01 4.236000000000000227e+02 3.799999999999999992e-03
1.800000000000000044e+00 3.247999999999999687e+01 4.296999999999999886e+02 3.900000000000000255e-03
2.000000000000000000e+00 3.424000000000000199e+01 4.408000000000000114e+02 4.200000000000000608e-03
2.250000000000000000e+00 3.631000000000000227e+01 4.528999999999999773e+02 4.599999999999999922e-03
2.500000000000000000e+00 3.828000000000000114e+01 4.633999999999999773e+02 4.899999999999999842e-03
2.750000000000000000e+00 4.014999999999999858e+01 4.726999999999999886e+02 5.200000000000000629e-03
3.000000000000000000e+00 4.192999999999999972e+01 4.808999999999999773e+02 5.599999999999999943e-03
3.250000000000000000e+00 4.364000000000000057e+01 4.881000000000000227e+02 5.899999999999999863e-03
3.500000000000000000e+00 4.528999999999999915e+01 4.946000000000000227e+02 6.200000000000000649e-03
3.750000000000000000e+00 4.688000000000000256e+01 5.005000000000000000e+02 6.500000000000000569e-03
4.000000000000000000e+00 4.842000000000000171e+01 5.056999999999999886e+02 6.800000000000000488e-03
4.500000000000000000e+00 5.135999999999999943e+01 5.147999999999999545e+02 7.500000000000000590e-03
5.000000000000000000e+00 5.414000000000000057e+01 5.222999999999999545e+02 8.099999999999999561e-03
5.500000000000000000e+00 5.678000000000000114e+01 5.285000000000000000e+02 8.700000000000001135e-03
6.000000000000000000e+00 5.929999999999999716e+01 5.336000000000000227e+02 9.300000000000000974e-03
6.500000000000000000e+00 6.172999999999999687e+01 5.378999999999999773e+02 9.900000000000000813e-03
7.000000000000000000e+00 6.406000000000000227e+01 5.415000000000000000e+02 1.050000000000000065e-02
8.000000000000000000e+00 6.848000000000000398e+01 5.470000000000000000e+02 1.170000000000000033e-02
9.000000000000000000e+00 7.264000000000000057e+01 5.506000000000000227e+02 1.290000000000000001e-02
1.000000000000000000e+01 7.656999999999999318e+01 5.528999999999999773e+02 1.400000000000000029e-02
1.100000000000000000e+01 8.031000000000000227e+01 5.542000000000000455e+02 1.519999999999999997e-02
1.200000000000000000e+01 8.387999999999999545e+01 5.546000000000000227e+02 1.640000000000000138e-02
1.300000000000000000e+01 8.729999999999999716e+01 5.543999999999999773e+02 1.750000000000000167e-02
1.400000000000000000e+01 9.059999999999999432e+01 5.537000000000000455e+02 1.870000000000000134e-02
1.500000000000000000e+01 9.378000000000000114e+01 5.525000000000000000e+02 1.980000000000000163e-02
1.600000000000000000e+01 9.685999999999999943e+01 5.510000000000000000e+02 2.100000000000000130e-02
1.700000000000000000e+01 9.984000000000000341e+01 5.492999999999999545e+02 2.220000000000000098e-02
1.800000000000000000e+01 1.027000000000000028e+02 5.472999999999999545e+02 2.330000000000000127e-02
2.000000000000000000e+01 1.082999999999999972e+02 5.427999999999999545e+02 2.570000000000000062e-02
2.250000000000000000e+01 1.149000000000000057e+02 5.365000000000000000e+02 2.860000000000000042e-02
2.500000000000000000e+01 1.210999999999999943e+02 5.297000000000000455e+02 3.160000000000000309e-02
2.750000000000000000e+01 1.270000000000000000e+02 5.227000000000000455e+02 3.459999999999999881e-02
3.000000000000000000e+01 1.326999999999999886e+02 5.156000000000000227e+02 3.760000000000000148e-02
3.250000000000000000e+01 1.380999999999999943e+02 5.083999999999999773e+02 4.070000000000000007e-02
3.500000000000000000e+01 1.433000000000000114e+02 5.013000000000000114e+02 4.370000000000000273e-02
3.750000000000000000e+01 1.483000000000000114e+02 4.943999999999999773e+02 4.680000000000000132e-02
4.000000000000000000e+01 1.531999999999999886e+02 4.875000000000000000e+02 4.989999999999999991e-02
4.500000000000000000e+01 1.625000000000000000e+02 4.741000000000000227e+02 5.619999999999999996e-02
5.000000000000000000e+01 1.713000000000000114e+02 4.613999999999999773e+02 6.250000000000000000e-02
5.500000000000000000e+01 1.796999999999999886e+02 4.493999999999999773e+02 6.890000000000000291e-02
6.000000000000000000e+01 1.873000000000000114e+02 4.378999999999999773e+02 7.540000000000000868e-02
6.500000000000000000e+01 1.951999999999999886e+02 4.271000000000000227e+02 8.200000000000000344e-02
7.000000000000000000e+01 2.033000000000000114e+02 4.168000000000000114e+02 8.859999999999999820e-02
8.000000000000000000e+01 2.185000000000000000e+02 3.978999999999999773e+02 1.020000000000000073e-01
9.000000000000000000e+01 2.320000000000000000e+02 3.808999999999999773e+02 1.156000000000000083e-01
1.000000000000000000e+02 2.435000000000000000e+02 3.653999999999999773e+02 1.292999999999999983e-01
1.100000000000000000e+02 2.534000000000000057e+02 3.513999999999999773e+02 1.431999999999999940e-01
1.200000000000000000e+02 2.620000000000000000e+02 3.386000000000000227e+02 1.572999999999999954e-01
1.300000000000000000e+02 2.696000000000000227e+02 3.268000000000000114e+02 1.715000000000000135e-01
1.400000000000000000e+02 2.763000000000000114e+02 3.158999999999999773e+02 1.859999999999999987e-01
1.500000000000000000e+02 2.823999999999999773e+02 3.058999999999999773e+02 2.005000000000000115e-01
1.600000000000000000e+02 2.880000000000000000e+02 2.966000000000000227e+02 2.152000000000000024e-01
1.700000000000000000e+02 2.933000000000000114e+02 2.880000000000000000e+02 2.300999999999999990e-01
1.800000000000000000e+02 2.983000000000000114e+02 2.798999999999999773e+02 2.451000000000000123e-01
2.000000000000000000e+02 3.080000000000000000e+02 2.651999999999999886e+02 2.754000000000000337e-01
2.250000000000000000e+02 3.201000000000000227e+02 2.493000000000000114e+02 3.138000000000000234e-01
2.500000000000000000e+02 3.323999999999999773e+02 2.354000000000000057e+02 3.527000000000000135e-01
2.750000000000000000e+02 3.451999999999999886e+02 2.233000000000000114e+02 3.916999999999999926e-01
3.000000000000000000e+02 3.586999999999999886e+02 2.125000000000000000e+02 4.309000000000000052e-01
3.250000000000000000e+02 3.728000000000000114e+02 2.028000000000000114e+02 4.699000000000000399e-01
3.500000000000000000e+02 3.875000000000000000e+02 1.941999999999999886e+02 5.087000000000000410e-01
3.750000000000000000e+02 4.026999999999999886e+02 1.863000000000000114e+02 5.472000000000000197e-01
4.000000000000000000e+02 4.183999999999999773e+02 1.791999999999999886e+02 5.854000000000000314e-01
4.500000000000000000e+02 4.510000000000000000e+02 1.665999999999999943e+02 6.602000000000000091e-01
5.000000000000000000e+02 4.846999999999999886e+02 1.559000000000000057e+02 7.328999999999999959e-01
5.500000000000000000e+02 5.191000000000000227e+02 1.466999999999999886e+02 8.032000000000000250e-01
6.000000000000000000e+02 5.537999999999999545e+02 1.385999999999999943e+02 8.712000000000000854e-01
6.500000000000000000e+02 5.886000000000000227e+02 1.315000000000000000e+02 9.369000000000000661e-01
7.000000000000000000e+02 6.233999999999999773e+02 1.252000000000000028e+02 1.000000000000000000e+00
8.000000000000000000e+02 6.920000000000000000e+02 1.144000000000000057e+02 1.120000000000000107e+00
9.000000000000000000e+02 7.587000000000000455e+02 1.055999999999999943e+02 1.229999999999999982e+00
1.000000000000000000e+03 8.232999999999999545e+02 9.809999999999999432e+01 1.340000000000000080e+00
1.100000000000000000e+03 8.853999999999999773e+02 9.175000000000000000e+01 1.439999999999999947e+00
1.200000000000000000e+03 9.451000000000000227e+02 8.626000000000000512e+01 1.540000000000000036e+00
1.300000000000000000e+03 1.002000000000000000e+03 8.145000000000000284e+01 1.629999999999999893e+00
1.400000000000000000e+03 1.057000000000000000e+03 7.720999999999999375e+01 1.709999999999999964e+00
1.500000000000000000e+03 1.110000000000000000e+03 7.343999999999999773e+01 1.800000000000000044e+00
1.600000000000000000e+03 1.161000000000000000e+03 7.006000000000000227e+01 1.879999999999999893e+00
1.700000000000000000e+03 1.210000000000000000e+03 6.700000000000000000e+01 1.949999999999999956e+00
1.800000000000000000e+03 1.257000000000000000e+03 6.423000000000000398e+01 2.029999999999999805e+00
2.000000000000000000e+03 1.346000000000000000e+03 5.939000000000000057e+01 2.169999999999999929e+00
2.250000000000000000e+03 1.450000000000000000e+03 5.436999999999999744e+01 2.339999999999999858e+00
2.500000000000000000e+03 1.547000000000000000e+03 5.020000000000000284e+01 2.500000000000000000e+00
2.750000000000000000e+03 1.637000000000000000e+03 4.667999999999999972e+01 2.649999999999999911e+00
3.000000000000000000e+03 1.723000000000000000e+03 4.367000000000000171e+01 2.790000000000000036e+00
3.250000000000000000e+03 1.805000000000000000e+03 4.104999999999999716e+01 2.919999999999999929e+00
3.500000000000000000e+03 1.882000000000000000e+03 3.875999999999999801e+01 3.060000000000000053e+00
3.750000000000000000e+03 1.957000000000000000e+03 3.672999999999999687e+01 3.180000000000000160e+00
4.000000000000000000e+03 2.029000000000000000e+03 3.492999999999999972e+01 3.299999999999999822e+00
4.500000000000000000e+03 2.165000000000000000e+03 3.183999999999999986e+01 3.540000000000000036e+00
5.000000000000000000e+03 2.294000000000000000e+03 2.928999999999999915e+01 3.750000000000000000e+00
5.500000000000000000e+03 2.415000000000000000e+03 2.714999999999999858e+01 3.959999999999999964e+00
6.000000000000000000e+03 2.531000000000000000e+03 2.532999999999999829e+01 4.160000000000000142e+00
6.500000000000000000e+03 2.643000000000000000e+03 2.376000000000000156e+01 4.349999999999999645e+00
7.000000000000000000e+03 2.750000000000000000e+03 2.237999999999999901e+01 4.530000000000000249e+00
8.000000000000000000e+03 2.955000000000000000e+03 2.008999999999999986e+01 4.879999999999999893e+00
9.000000000000000000e+03 3.148000000000000000e+03 1.825000000000000000e+01 5.200000000000000178e+00
1.000000000000000000e+04 3.328000000000000000e+03 1.675000000000000000e+01 5.509999999999999787e+00
