# Energy(keV)    dEe/dx(keV/micro_m)  dEn/dx(keV/micro_m)  x(micro_m)
9.999990000000000268e-03 3.717000000000000082e+00 3.164000000000000057e+01 4.000000000000000192e-04
1.099989999999999996e-02 3.898000000000000131e+00 3.382000000000000028e+01 5.000000000000000104e-04
1.199990000000000084e-02 4.072000000000000064e+00 3.592999999999999972e+01 5.000000000000000104e-04
1.299990000000000000e-02 4.238000000000000433e+00 3.799000000000000199e+01 5.000000000000000104e-04
1.399990000000000089e-02 4.397999999999999687e+00 3.999000000000000199e+01 5.000000000000000104e-04
1.499990000000000004e-02 4.551999999999999602e+00 4.195000000000000284e+01 5.000000000000000104e-04
1.599990000000000093e-02 4.701999999999999957e+00 4.385999999999999943e+01 5.000000000000000104e-04
1.699990000000000182e-02 4.846000000000000085e+00 4.572999999999999687e+01 5.000000000000000104e-04
1.799989999999999923e-02 4.987000000000000099e+00 4.757000000000000028e+01 5.000000000000000104e-04
1.999990000000000101e-02 5.256999999999999673e+00 5.114000000000000057e+01 6.000000000000000559e-04
2.249989999999999976e-02 5.575000000000000178e+00 5.542999999999999972e+01 6.000000000000000559e-04
2.499990000000000198e-02 5.876999999999999780e+00 5.956000000000000227e+01 6.000000000000000559e-04
2.749990000000000073e-02 6.163999999999999702e+00 6.354999999999999716e+01 6.000000000000000559e-04
2.999989999999999948e-02 6.437999999999999723e+00 6.740999999999999659e+01 6.000000000000000559e-04
3.249989999999999823e-02 6.700999999999999623e+00 7.115999999999999659e+01 6.999999999999999929e-04
3.499990000000000046e-02 6.953999999999999737e+00 7.479999999999999716e+01 6.999999999999999929e-04
3.749989999999999574e-02 7.198000000000000398e+00 7.834999999999999432e+01 6.999999999999999929e-04
3.999989999999999796e-02 7.434000000000000163e+00 8.181999999999999318e+01 6.999999999999999929e-04
4.499989999999999546e-02 7.884999999999999787e+00 8.853000000000000114e+01 6.999999999999999929e-04
4.999989999999999990e-02 8.310999999999999943e+00 9.496999999999999886e+01 8.000000000000000383e-04
5.499989999999999740e-02 8.717000000000000526e+00 1.012000000000000028e+02 8.000000000000000383e-04
5.999989999999999490e-02 9.105000000000000426e+00 1.072000000000000028e+02 8.000000000000000383e-04
6.499989999999999934e-02 9.476000000000000867e+00 1.130000000000000000e+02 8.000000000000000383e-04
6.999990000000000379e-02 9.833999999999999631e+00 1.185999999999999943e+02 8.000000000000000383e-04
7.999989999999999879e-02 1.050999999999999979e+01 1.295000000000000000e+02 9.000000000000000838e-04
8.999989999999999379e-02 1.115000000000000036e+01 1.398000000000000114e+02 9.000000000000000838e-04
9.999990000000000268e-02 1.175000000000000000e+01 1.496999999999999886e+02 1.000000000000000021e-03
1.100000000000000006e-01 1.233000000000000007e+01 1.591999999999999886e+02 1.000000000000000021e-03
1.199999999999999956e-01 1.288000000000000078e+01 1.684000000000000057e+02 1.000000000000000021e-03
1.300000000000000044e-01 1.340000000000000036e+01 1.771999999999999886e+02 1.000000000000000021e-03
1.399989999999999846e-01 1.391000000000000014e+01 1.858000000000000114e+02 1.100000000000000066e-03
1.499989999999999934e-01 1.440000000000000036e+01 1.941999999999999886e+02 1.100000000000000066e-03
1.599990000000000023e-01 1.486999999999999922e+01 2.023000000000000114e+02 1.100000000000000066e-03
1.699990000000000112e-01 1.533000000000000007e+01 2.101999999999999886e+02 1.100000000000000066e-03
1.799989999999999923e-01 1.576999999999999957e+01 2.180000000000000000e+02 1.200000000000000112e-03
1.999990000000000101e-01 1.662000000000000099e+01 2.329000000000000057e+02 1.200000000000000112e-03
2.249990000000000046e-01 1.762999999999999901e+01 2.506999999999999886e+02 1.300000000000000157e-03
2.499989999999999990e-01 1.857999999999999829e+01 2.676999999999999886e+02 1.300000000000000157e-03
2.749990000000000490e-01 1.948999999999999844e+01 2.840000000000000000e+02 1.399999999999999986e-03
2.999990000000000157e-01 2.035999999999999943e+01 2.996999999999999886e+02 1.399999999999999986e-03
3.249990000000000379e-01 2.119000000000000128e+01 3.148000000000000114e+02 1.399999999999999986e-03
3.499990000000000046e-01 2.198999999999999844e+01 3.293999999999999773e+02 1.500000000000000031e-03
3.749990000000000268e-01 2.276000000000000156e+01 3.435000000000000000e+02 1.500000000000000031e-03
3.999990000000000490e-01 2.351000000000000156e+01 3.571999999999999886e+02 1.600000000000000077e-03
4.499990000000000379e-01 2.492999999999999972e+01 3.836000000000000227e+02 1.600000000000000077e-03
4.999990000000000268e-01 2.628000000000000114e+01 4.086000000000000227e+02 1.700000000000000122e-03
5.499990000000000157e-01 2.757000000000000028e+01 4.325000000000000000e+02 1.700000000000000122e-03
5.999990000000000601e-01 2.878999999999999915e+01 4.553999999999999773e+02 1.800000000000000168e-03
6.499989999999999934e-01 2.996999999999999886e+01 4.775000000000000000e+02 1.899999999999999996e-03
6.999990000000000379e-01 3.110000000000000142e+01 4.986999999999999886e+02 1.899999999999999996e-03
7.999990000000000157e-01 3.325000000000000000e+01 5.392000000000000455e+02 2.000000000000000042e-03
8.999989999999999934e-01 3.525999999999999801e+01 5.772000000000000455e+02 2.100000000000000304e-03
9.999990000000000823e-01 3.717000000000000171e+01 6.132000000000000455e+02 2.200000000000000133e-03
1.100000000000000089e+00 3.897999999999999687e+01 6.475000000000000000e+02 2.299999999999999961e-03
1.199999999999999956e+00 4.071999999999999886e+01 6.802000000000000455e+02 2.400000000000000223e-03
1.300000000000000044e+00 4.238000000000000256e+01 7.116000000000000227e+02 2.400000000000000223e-03
1.399999999999999911e+00 4.397999999999999687e+01 7.417000000000000455e+02 2.500000000000000052e-03
1.500000000000000000e+00 4.552000000000000313e+01 7.707000000000000455e+02 2.600000000000000314e-03
1.600000000000000089e+00 4.702000000000000313e+01 7.987999999999999545e+02 2.600000000000000314e-03
1.699999999999999956e+00 4.846000000000000085e+01 8.258999999999999773e+02 2.700000000000000143e-03
1.800000000000000044e+00 4.986999999999999744e+01 8.522000000000000455e+02 2.799999999999999972e-03
2.000000000000000000e+00 5.257000000000000028e+01 9.026000000000000227e+02 2.900000000000000234e-03
2.250000000000000000e+00 5.575000000000000000e+01 9.617999999999999545e+02 3.000000000000000062e-03
2.500000000000000000e+00 5.877000000000000313e+01 1.017000000000000000e+03 3.200000000000000153e-03
2.750000000000000000e+00 6.164000000000000057e+01 1.070000000000000000e+03 3.299999999999999982e-03
3.000000000000000000e+00 6.437999999999999545e+01 1.120000000000000000e+03 3.400000000000000244e-03
3.250000000000000000e+00 6.701000000000000512e+01 1.168000000000000000e+03 3.600000000000000335e-03
3.500000000000000000e+00 6.954000000000000625e+01 1.213000000000000000e+03 3.700000000000000164e-03
3.750000000000000000e+00 7.198000000000000398e+01 1.257000000000000000e+03 3.799999999999999992e-03
4.000000000000000000e+00 7.434000000000000341e+01 1.299000000000000000e+03 3.900000000000000255e-03
4.500000000000000000e+00 7.884999999999999432e+01 1.378000000000000000e+03 4.100000000000000346e-03
5.000000000000000000e+00 8.310999999999999943e+01 1.452000000000000000e+03 4.300000000000000003e-03
5.500000000000000000e+00 8.717000000000000171e+01 1.522000000000000000e+03 4.500000000000000527e-03
6.000000000000000000e+00 9.104999999999999716e+01 1.588000000000000000e+03 4.700000000000000185e-03
6.500000000000000000e+00 9.476000000000000512e+01 1.650000000000000000e+03 4.899999999999999842e-03
7.000000000000000000e+00 9.834000000000000341e+01 1.709000000000000000e+03 5.000000000000000104e-03
8.000000000000000000e+00 1.050999999999999943e+02 1.820000000000000000e+03 5.400000000000000286e-03
9.000000000000000000e+00 1.115000000000000000e+02 1.922000000000000000e+03 5.700000000000000205e-03
1.000000000000000000e+01 1.175000000000000000e+02 2.016000000000000000e+03 6.000000000000000125e-03
1.100000000000000000e+01 1.232999999999999972e+02 2.104000000000000000e+03 6.300000000000000044e-03
1.200000000000000000e+01 1.288000000000000114e+02 2.187000000000000000e+03 6.500000000000000569e-03
1.300000000000000000e+01 1.340000000000000000e+02 2.264000000000000000e+03 6.800000000000000488e-03
1.400000000000000000e+01 1.390999999999999943e+02 2.338000000000000000e+03 7.100000000000000408e-03
1.500000000000000000e+01 1.440000000000000000e+02 2.407000000000000000e+03 7.300000000000000065e-03
1.600000000000000000e+01 1.486999999999999886e+02 2.473000000000000000e+03 7.599999999999999985e-03
1.700000000000000000e+01 1.533000000000000114e+02 2.536000000000000000e+03 7.800000000000000509e-03
1.800000000000000000e+01 1.576999999999999886e+02 2.597000000000000000e+03 8.000000000000000167e-03
2.000000000000000000e+01 1.661999999999999886e+02 2.710000000000000000e+03 8.500000000000000611e-03
2.250000000000000000e+01 1.763000000000000114e+02 2.840000000000000000e+03 9.000000000000001055e-03
2.500000000000000000e+01 1.858000000000000114e+02 2.958000000000000000e+03 9.600000000000000894e-03
2.750000000000000000e+01 1.949000000000000057e+02 3.067000000000000000e+03 1.010000000000000134e-02
3.000000000000000000e+01 2.035999999999999943e+02 3.168000000000000000e+03 1.060000000000000005e-02
3.250000000000000000e+01 2.119000000000000057e+02 3.262000000000000000e+03 1.110000000000000049e-02
3.500000000000000000e+01 2.199000000000000057e+02 3.350000000000000000e+03 1.149999999999999981e-02
3.750000000000000000e+01 2.275999999999999943e+02 3.432000000000000000e+03 1.200000000000000025e-02
4.000000000000000000e+01 2.350999999999999943e+02 3.510000000000000000e+03 1.240000000000000130e-02
4.500000000000000000e+01 2.493000000000000114e+02 3.653000000000000000e+03 1.330000000000000106e-02
5.000000000000000000e+01 2.628000000000000114e+02 3.781000000000000000e+03 1.420000000000000082e-02
5.500000000000000000e+01 2.756999999999999886e+02 3.898000000000000000e+03 1.500000000000000118e-02
6.000000000000000000e+01 2.878999999999999773e+02 4.006000000000000000e+03 1.580000000000000154e-02
6.500000000000000000e+01 2.996999999999999886e+02 4.104000000000000000e+03 1.660000000000000017e-02
7.000000000000000000e+01 3.110000000000000000e+02 4.195000000000000000e+03 1.740000000000000227e-02
8.000000000000000000e+01 3.325000000000000000e+02 4.359000000000000000e+03 1.890000000000000013e-02
9.000000000000000000e+01 3.526000000000000227e+02 4.502000000000000000e+03 2.030000000000000207e-02
1.000000000000000000e+02 3.716999999999999886e+02 4.629000000000000000e+03 2.170000000000000054e-02
1.100000000000000000e+02 3.898000000000000114e+02 4.742000000000000000e+03 2.310000000000000248e-02
1.200000000000000000e+02 4.071999999999999886e+02 4.843000000000000000e+03 2.450000000000000094e-02
1.300000000000000000e+02 4.238000000000000114e+02 4.935000000000000000e+03 2.580000000000000002e-02
1.400000000000000000e+02 4.398000000000000114e+02 5.019000000000000000e+03 2.710000000000000256e-02
1.500000000000000000e+02 4.551999999999999886e+02 5.095000000000000000e+03 2.840000000000000163e-02
1.600000000000000000e+02 4.701999999999999886e+02 5.165000000000000000e+03 2.970000000000000070e-02
1.700000000000000000e+02 4.846000000000000227e+02 5.230000000000000000e+03 3.099999999999999978e-02
1.800000000000000000e+02 4.986999999999999886e+02 5.289000000000000000e+03 3.230000000000000232e-02
2.000000000000000000e+02 5.257000000000000455e+02 5.396000000000000000e+03 3.470000000000000168e-02
2.250000000000000000e+02 5.575000000000000000e+02 5.509000000000000000e+03 3.780000000000000027e-02
2.500000000000000000e+02 5.877000000000000455e+02 5.604000000000000000e+03 4.080000000000000293e-02
2.750000000000000000e+02 6.163999999999999773e+02 5.685000000000000000e+03 4.370000000000000273e-02
3.000000000000000000e+02 6.437999999999999545e+02 5.754000000000000000e+03 4.660000000000000253e-02
3.250000000000000000e+02 6.701000000000000227e+02 5.813000000000000000e+03 4.950000000000000233e-02
3.500000000000000000e+02 6.953999999999999773e+02 5.864000000000000000e+03 5.240000000000000213e-02
3.750000000000000000e+02 7.197999999999999545e+02 5.908000000000000000e+03 5.520000000000000601e-02
4.000000000000000000e+02 7.433999999999999773e+02 5.946000000000000000e+03 5.800000000000000294e-02
4.500000000000000000e+02 7.885000000000000000e+02 6.007000000000000000e+03 6.360000000000000375e-02
5.000000000000000000e+02 8.735000000000000000e+02 6.052000000000000000e+03 6.919999999999999762e-02
5.500000000000000000e+02 9.560000000000000000e+02 6.084000000000000000e+03 7.459999999999999964e-02
6.000000000000000000e+02 1.022000000000000000e+03 6.106000000000000000e+03 8.010000000000000453e-02
6.500000000000000000e+02 1.075000000000000000e+03 6.120000000000000000e+03 8.540000000000000369e-02
7.000000000000000000e+02 1.120000000000000000e+03 6.127000000000000000e+03 9.080000000000000571e-02
8.000000000000000000e+02 1.190000000000000000e+03 6.127000000000000000e+03 1.015000000000000069e-01
9.000000000000000000e+02 1.243000000000000000e+03 6.111000000000000000e+03 1.122000000000000081e-01
1.000000000000000000e+03 1.289000000000000000e+03 6.084000000000000000e+03 1.229000000000000092e-01
1.100000000000000000e+03 1.329000000000000000e+03 6.050000000000000000e+03 1.335999999999999965e-01
1.200000000000000000e+03 1.368000000000000000e+03 6.010000000000000000e+03 1.444000000000000006e-01
1.300000000000000000e+03 1.406000000000000000e+03 5.966000000000000000e+03 1.552999999999999936e-01
1.400000000000000000e+03 1.444000000000000000e+03 5.919000000000000000e+03 1.662000000000000144e-01
1.500000000000000000e+03 1.483000000000000000e+03 5.871000000000000000e+03 1.771999999999999964e-01
1.600000000000000000e+03 1.522000000000000000e+03 5.820000000000000000e+03 1.882000000000000062e-01
1.700000000000000000e+03 1.563000000000000000e+03 5.769000000000000000e+03 1.993000000000000049e-01
1.800000000000000000e+03 1.603000000000000000e+03 5.718000000000000000e+03 2.104000000000000037e-01
2.000000000000000000e+03 1.687000000000000000e+03 5.615000000000000000e+03 2.328000000000000069e-01
2.250000000000000000e+03 1.794000000000000000e+03 5.487000000000000000e+03 2.610000000000000098e-01
2.500000000000000000e+03 1.903000000000000000e+03 5.363000000000000000e+03 2.895000000000000351e-01
2.750000000000000000e+03 2.012000000000000000e+03 5.243000000000000000e+03 3.180999999999999939e-01
3.000000000000000000e+03 2.119000000000000000e+03 5.127000000000000000e+03 3.470000000000000306e-01
3.250000000000000000e+03 2.225000000000000000e+03 5.016000000000000000e+03 3.759000000000000119e-01
3.500000000000000000e+03 2.328000000000000000e+03 4.910000000000000000e+03 4.050000000000000266e-01
3.750000000000000000e+03 2.429000000000000000e+03 4.808000000000000000e+03 4.342000000000000304e-01
4.000000000000000000e+03 2.526000000000000000e+03 4.711000000000000000e+03 4.636000000000000121e-01
4.500000000000000000e+03 2.711000000000000000e+03 4.529000000000000000e+03 5.225000000000000755e-01
5.000000000000000000e+03 2.881000000000000000e+03 4.363000000000000000e+03 5.816999999999999948e-01
5.500000000000000000e+03 3.037000000000000000e+03 4.210000000000000000e+03 6.411999999999999922e-01
6.000000000000000000e+03 3.181000000000000000e+03 4.068000000000000000e+03 7.010000000000000675e-01
6.500000000000000000e+03 3.311000000000000000e+03 3.938000000000000000e+03 7.610000000000000098e-01
7.000000000000000000e+03 3.430000000000000000e+03 3.817000000000000000e+03 8.213000000000000300e-01
8.000000000000000000e+03 3.638000000000000000e+03 3.599000000000000000e+03 9.427000000000000934e-01
9.000000000000000000e+03 3.812000000000000000e+03 3.409000000000000000e+03 1.070000000000000062e+00
1.000000000000000000e+04 3.961000000000000000e+03 3.241000000000000000e+03 1.189999999999999947e+00
