# Er [keV]  dR/dEr H1 [1/keV/decay]  O16  S32  S34  Ca40  Ca44
1.011646E-03  1.072301E+08  3.498663E+06  2.242134E+05  0.000000E+00  6.259291E+05  2.335556E+04
1.035211E-03  1.055287E+08  3.419024E+06  1.643323E+05  0.000000E+00  6.527643E+05  3.651828E+04
1.059324E-03  1.037556E+08  3.376885E+06  1.873569E+05  0.000000E+00  5.174618E+05  2.676527E+04
1.083999E-03  1.007486E+08  3.321814E+06  1.700141E+05  0.000000E+00  4.926050E+05  3.487469E+04
1.109248E-03  9.809319E+07  3.335662E+06  1.917047E+05  0.000000E+00  4.813919E+05  8.520211E+03
1.135086E-03  9.601435E+07  3.376301E+06  1.540359E+05  0.000000E+00  4.912498E+05  2.081567E+04
1.161526E-03  9.384507E+07  3.527276E+06  1.261194E+05  0.000000E+00  4.800675E+05  2.034185E+04
1.188581E-03  9.179636E+07  3.458913E+06  2.226427E+05  0.000000E+00  4.850429E+05  1.987881E+04
1.216267E-03  9.100061E+07  3.442342E+06  2.408863E+05  0.000000E+00  4.778873E+05  1.165579E+04
1.244597E-03  8.628660E+07  3.401953E+06  1.936380E+05  0.000000E+00  5.733203E+05  1.518729E+04
1.273587E-03  8.478256E+07  3.369040E+06  1.743886E+05  0.000000E+00  4.304060E+05  2.226238E+04
1.303253E-03  8.292520E+07  3.328611E+06  1.667931E+05  0.000000E+00  3.625938E+05  7.251875E+03
1.333610E-03  8.154075E+07  3.352058E+06  1.700833E+05  0.000000E+00  4.287516E+05  2.480381E+04
1.364674E-03  7.979546E+07  3.203038E+06  1.835254E+05  0.000000E+00  4.847841E+05  2.077646E+04
1.396461E-03  7.789450E+07  3.573422E+06  1.556604E+05  0.000000E+00  3.823832E+05  1.353569E+04
1.428989E-03  7.556585E+07  3.425943E+06  1.455034E+05  0.000000E+00  3.406101E+05  1.984137E+04
1.462274E-03  7.413983E+07  3.448139E+06  1.260332E+05  0.000000E+00  4.524269E+05  9.694861E+03
1.496335E-03  7.215535E+07  3.435969E+06  1.926416E+05  0.000000E+00  4.673928E+05  9.474179E+03
1.531189E-03  7.079373E+07  3.413308E+06  1.604810E+05  0.000000E+00  3.549100E+05  9.258521E+03
1.566855E-03  6.950498E+07  3.528631E+06  1.236529E+05  0.000000E+00  3.830223E+05  2.111147E+04
1.603352E-03  6.868914E+07  3.280315E+06  1.237855E+05  0.000000E+00  3.772509E+05  2.652546E+04
1.640699E-03  6.630473E+07  3.525346E+06  1.123272E+05  0.000000E+00  4.003457E+05  2.016129E+04
1.678915E-03  6.453369E+07  3.484504E+06  1.294727E+05  0.000000E+00  3.433841E+05  1.407312E+04
1.718022E-03  6.301522E+07  3.385933E+06  1.375278E+05  0.000000E+00  3.438194E+05  1.925389E+04
1.758040E-03  6.204852E+07  3.381435E+06  1.290213E+05  0.000000E+00  3.494328E+05  1.881561E+04
1.798990E-03  6.044962E+07  3.425295E+06  1.260845E+05  0.000000E+00  3.441055E+05  7.880279E+03
1.840894E-03  5.902741E+07  3.275450E+06  1.617189E+05  0.000000E+00  3.106030E+05  2.310271E+04
1.883774E-03  5.734764E+07  3.504425E+06  1.254268E+05  0.000000E+00  3.035329E+05  1.003414E+04
1.927653E-03  5.620404E+07  3.368271E+06  1.299260E+05  0.000000E+00  2.966236E+05  1.716004E+04
1.972553E-03  5.497020E+07  3.509603E+06  1.173860E+05  0.000000E+00  2.970585E+05  9.582533E+03
2.018500E-03  5.343097E+07  3.389916E+06  1.217373E+05  0.000000E+00  3.300954E+05  1.404661E+04
2.065517E-03  5.275008E+07  3.479762E+06  1.121028E+05  0.000000E+00  2.859765E+05  4.575624E+03
2.113629E-03  5.153816E+07  3.391610E+06  9.166514E+04  0.000000E+00  2.705239E+05  1.341441E+04
2.162862E-03  5.019023E+07  3.240123E+06  9.831796E+04  0.000000E+00  2.359631E+05  1.092422E+04
2.213241E-03  4.935735E+07  3.465284E+06  9.821508E+04  0.000000E+00  2.711590E+05  1.281066E+04
2.264794E-03  4.828183E+07  3.315463E+06  1.043255E+05  0.000000E+00  2.608137E+05  1.043255E+04
2.317548E-03  4.642428E+07  3.311360E+06  1.060288E+05  0.000000E+00  2.711889E+05  1.019507E+04
2.371531E-03  4.574016E+07  3.146317E+06  8.368924E+04  0.000000E+00  2.550529E+05  1.195561E+04
2.426771E-03  4.529679E+07  3.123379E+06  8.178424E+04  0.000000E+00  2.103023E+05  7.788975E+03
2.483298E-03  4.390986E+07  3.120787E+06  7.611677E+04  0.000000E+00  2.645058E+05  3.805838E+03
2.541141E-03  4.302193E+07  3.198518E+06  8.554176E+04  0.000000E+00  2.324504E+05  1.301722E+04
2.600332E-03  4.226979E+07  2.865841E+06  7.996004E+04  0.000000E+00  2.307938E+05  7.269095E+03
2.660901E-03  4.101281E+07  2.715363E+06  6.926039E+04  0.000000E+00  2.290921E+05  1.775907E+04
2.722882E-03  4.017643E+07  2.849663E+06  7.289028E+04  0.000000E+00  1.891676E+05  1.041290E+04
2.786306E-03  3.943659E+07  2.750877E+06  9.497480E+04  0.000000E+00  2.255651E+05  1.187185E+04
2.851207E-03  3.784115E+07  2.708148E+06  8.949816E+04  0.000000E+00  2.436339E+05  1.657373E+03
2.917620E-03  3.766651E+07  2.578478E+06  6.478588E+04  0.000000E+00  2.073148E+05  6.478588E+03
2.985580E-03  3.634536E+07  2.515036E+06  7.122506E+04  0.000000E+00  1.820196E+05  6.331117E+03
3.055124E-03  3.560620E+07  2.434586E+06  8.507129E+04  0.000000E+00  2.103581E+05  7.733754E+03
3.126287E-03  3.474129E+07  2.327775E+06  7.557712E+04  0.000000E+00  1.662697E+05  3.023085E+03
3.199107E-03  3.406422E+07  2.388528E+06  5.465401E+04  0.000000E+00  1.713477E+05  8.862813E+03
3.273624E-03  3.340719E+07  2.390456E+06  8.372368E+04  0.000000E+00  2.020917E+05  7.217559E+03
3.349876E-03  3.259738E+07  2.218958E+06  7.617529E+04  0.000000E+00  2.003128E+05  5.642614E+03
3.427905E-03  3.187881E+07  2.263568E+06  6.892715E+04  0.000000E+00  1.654252E+05  8.271258E+03
3.507751E-03  3.059139E+07  2.179711E+06  5.523371E+04  0.000000E+00  1.562710E+05  9.430145E+03
3.589457E-03  3.038478E+07  2.103764E+06  5.397643E+04  0.000000E+00  1.737778E+05  7.898990E+03
3.673066E-03  2.952461E+07  2.021141E+06  5.532084E+04  0.000000E+00  1.633895E+05  6.432656E+03
3.758623E-03  2.886763E+07  1.971362E+06  5.783333E+04  0.000000E+00  1.546413E+05  6.286231E+03
3.846173E-03  2.821175E+07  1.936317E+06  5.283100E+04  0.000000E+00  1.351491E+05  6.143139E+03
3.935762E-03  2.774727E+07  1.996699E+06  6.603635E+04  0.000000E+00  1.488819E+05  0.000000E+00
4.027437E-03  2.698308E+07  1.939515E+06  4.693322E+04  0.000000E+00  1.478396E+05  9.386644E+03
4.121248E-03  2.613267E+07  1.866701E+06  6.191760E+04  0.000000E+00  1.307149E+05  8.026355E+03
4.217245E-03  2.580450E+07  1.843258E+06  5.714662E+04  0.000000E+00  1.535115E+05  6.723131E+03
4.315477E-03  2.522697E+07  1.759690E+06  4.599066E+04  0.000000E+00  1.324969E+05  4.380063E+03
4.415997E-03  2.495878E+07  1.733546E+06  4.387369E+04  0.000000E+00  1.626537E+05  1.070090E+04
4.518859E-03  2.396295E+07  1.687811E+06  5.960672E+04  0.000000E+00  1.390823E+05  5.228659E+03
4.624117E-03  2.355953E+07  1.661655E+06  5.416219E+04  0.000000E+00  1.440919E+05  2.043856E+03
4.731826E-03  2.312511E+07  1.674763E+06  3.994665E+04  0.000000E+00  1.158453E+05  3.994665E+03
4.842045E-03  2.250894E+07  1.511721E+06  4.489295E+04  0.000000E+00  1.151602E+05  9.759338E+02
4.954830E-03  2.190597E+07  1.607016E+06  3.147272E+04  0.000000E+00  1.230297E+05  2.861156E+03
5.070243E-03  2.154060E+07  1.494011E+06  6.151263E+04  0.000000E+00  1.220932E+05  6.524066E+03
5.188344E-03  2.098835E+07  1.455449E+06  5.009369E+04  0.000000E+00  1.156709E+05  2.732383E+03
5.309196E-03  2.056667E+07  1.544258E+06  4.005280E+04  0.000000E+00  1.201584E+05  3.560249E+03
5.432863E-03  2.015244E+07  1.437782E+06  3.566188E+04  0.000000E+00  1.209025E+05  3.479207E+03
5.559411E-03  1.944211E+07  1.365954E+06  3.995013E+04  0.000000E+00  1.096504E+05  5.100017E+03
5.688906E-03  1.912000E+07  1.346491E+06  4.402468E+04  0.000000E+00  1.187836E+05  4.153272E+03
5.821418E-03  1.867991E+07  1.360487E+06  4.626954E+04  0.000000E+00  9.578607E+04  2.435239E+03
5.957016E-03  1.831895E+07  1.286682E+06  4.442305E+04  0.000000E+00  1.316826E+05  1.586537E+03
6.095773E-03  1.796786E+07  1.268246E+06  3.100847E+04  0.000000E+00  1.023279E+05  3.100847E+03
6.237762E-03  1.763916E+07  1.213620E+06  3.257533E+04  0.000000E+00  1.007562E+05  7.575658E+03
6.383058E-03  1.699482E+07  1.238558E+06  4.589993E+04  0.000000E+00  1.021644E+05  2.961286E+03
6.531738E-03  1.672300E+07  1.197342E+06  3.545001E+04  0.000000E+00  9.332759E+04  5.064288E+03
6.683882E-03  1.618114E+07  1.178572E+06  3.676408E+04  0.000000E+00  9.544520E+04  4.949011E+03
6.839570E-03  1.584460E+07  1.153817E+06  4.076358E+04  0.000000E+00  9.327261E+04  3.454541E+03
6.998884E-03  1.548528E+07  1.182917E+06  3.645978E+04  0.000000E+00  8.237211E+04  1.350362E+03
7.161909E-03  1.520471E+07  1.113763E+06  3.035136E+04  0.000000E+00  8.643540E+04  5.938310E+03
7.328731E-03  1.513716E+07  1.085187E+06  2.901569E+04  0.000000E+00  7.930954E+04  6.447930E+03
7.499439E-03  1.448447E+07  9.836107E+05  2.646486E+04  0.000000E+00  9.010655E+04  5.671042E+03
7.674123E-03  1.425082E+07  1.033882E+06  2.709399E+04  0.000000E+00  9.606052E+04  3.078863E+03
7.852877E-03  1.381872E+07  9.953042E+05  3.791062E+04  0.000000E+00  8.665285E+04  3.610535E+03
8.035794E-03  1.363766E+07  9.779409E+05  2.999097E+04  0.000000E+00  7.821175E+04  5.880582E+03
8.222971E-03  1.319965E+07  9.447614E+05  2.758428E+04  0.000000E+00  7.873012E+04  2.873362E+03
8.414509E-03  1.296096E+07  9.064083E+05  2.864115E+04  0.000000E+00  6.907572E+04  3.369548E+03
8.610508E-03  1.276033E+07  8.901664E+05  2.414755E+04  0.000000E+00  7.847953E+04  3.841655E+03
8.811073E-03  1.225910E+07  9.053005E+05  2.842472E+04  0.000000E+00  8.044732E+04  2.145262E+03
9.016309E-03  1.215091E+07  8.747353E+05  2.620537E+04  0.000000E+00  7.442326E+04  3.668752E+03
9.226326E-03  1.176318E+07  8.420195E+05  2.407233E+04  0.000000E+00  7.580224E+04  2.048709E+03
9.441234E-03  1.148190E+07  8.343647E+05  1.901971E+04  0.000000E+00  7.307574E+04  1.501556E+03
9.661149E-03  1.113445E+07  8.173288E+05  2.445628E+04  0.000000E+00  6.994495E+04  2.934753E+03
9.886186E-03  1.089486E+07  8.144978E+05  2.581155E+04  0.000000E+00  6.405089E+04  2.389958E+03
1.011646E-02  1.072581E+07  7.870825E+05  2.896090E+04  0.000000E+00  7.427069E+04  2.802668E+03
1.035211E-02  1.053461E+07  7.518201E+05  2.464984E+04  0.000000E+00  6.664586E+04  2.738871E+03
1.059324E-02  1.020917E+07  7.864528E+05  2.899571E+04  0.000000E+00  5.977576E+04  2.230439E+03
1.083999E-02  9.963262E+06  7.201623E+05  1.700141E+04  0.000000E+00  6.190257E+04  1.307801E+03
1.109248E-02  9.683219E+06  7.208098E+05  2.428260E+04  0.000000E+00  5.878945E+04  1.278032E+03
1.135086E-02  9.427416E+06  7.081490E+05  2.414617E+04  0.000000E+00  6.994064E+04  2.081567E+03
1.161526E-02  9.404442E+06  7.005731E+05  2.278287E+04  0.000000E+00  5.655033E+04  2.034185E+03
1.188581E-02  8.965342E+06  6.655425E+05  1.868608E+04  0.000000E+00  5.645582E+04  2.385457E+03
1.216267E-02  8.861506E+06  6.830291E+05  2.175747E+04  0.000000E+00  6.294125E+04  3.108210E+03
1.244597E-02  8.598285E+06  6.511551E+05  1.784507E+04  0.000000E+00  5.353520E+04  1.518729E+03
1.273587E-02  8.338374E+06  6.122154E+05  1.595471E+04  0.000000E+00  5.009035E+04  1.484159E+03
1.303253E-02  8.239581E+06  6.341765E+05  1.776709E+04  0.000000E+00  5.402647E+04  1.450375E+03
1.333610E-02  8.064781E+06  6.169062E+05  1.736267E+04  0.000000E+00  5.456838E+04  2.126041E+03
1.364674E-02  8.008633E+06  5.831260E+05  2.423921E+04  0.000000E+00  4.709331E+04  1.731372E+03
1.396461E-02  7.746474E+06  5.766203E+05  1.488926E+04  0.000000E+00  5.989542E+04  3.045530E+03
1.428989E-02  7.561545E+06  5.591959E+05  1.355827E+04  0.000000E+00  5.257962E+04  2.645516E+03
1.462274E-02  7.439190E+06  5.538997E+05  1.615810E+04  0.000000E+00  4.879747E+04  2.585296E+03
1.496335E-02  7.208903E+06  5.283434E+05  1.831675E+04  0.000000E+00  4.831831E+04  1.579030E+03
1.531189E-02  7.046351E+06  5.295874E+05  1.913428E+04  0.000000E+00  4.567537E+04  1.543087E+03
1.566855E-02  6.922751E+06  5.093895E+05  1.779395E+04  0.000000E+00  4.825478E+04  1.507962E+03
1.603352E-02  6.641090E+06  5.081098E+05  1.738891E+04  0.000000E+00  4.067236E+04  2.652546E+03
1.640699E-02  6.600519E+06  5.152650E+05  2.102535E+04  0.000000E+00  4.118664E+04  1.152074E+03
1.678915E-02  6.431978E+06  4.849597E+05  1.998383E+04  0.000000E+00  4.418959E+04  1.688774E+03
1.718022E-02  6.235783E+06  4.948249E+05  1.650333E+04  0.000000E+00  4.180844E+04  5.501110E+02
1.758040E-02  6.151899E+06  4.510371E+05  1.397731E+04  0.000000E+00  4.273832E+04  2.419150E+03
1.798990E-02  6.019745E+06  4.475998E+05  1.313380E+04  0.000000E+00  4.229083E+04  1.576056E+03
1.840894E-02  5.936625E+06  4.515296E+05  1.360493E+04  0.000000E+00  4.261166E+04  2.310271E+03
1.883774E-02  5.750317E+06  4.327225E+05  1.354609E+04  0.000000E+00  4.013658E+04  2.257682E+03
1.927653E-02  5.602999E+06  4.201759E+05  1.372803E+04  0.000000E+00  4.142925E+04  1.961148E+03
1.972553E-02  5.430901E+06  4.118094E+05  1.197817E+04  0.000000E+00  4.407965E+04  2.395633E+03
2.018500E-02  5.348013E+06  3.947098E+05  1.240784E+04  0.000000E+00  3.558475E+04  1.638771E+03
2.065517E-02  5.227193E+06  3.880129E+05  1.258297E+04  0.000000E+00  3.637621E+04  2.516593E+03
2.113629E-02  5.093228E+06  3.908065E+05  1.140225E+04  0.000000E+00  4.091395E+04  1.565015E+03
2.162862E-02  5.002418E+06  3.897761E+05  1.048725E+04  0.000000E+00  3.779779E+04  8.739374E+02
2.213241E-02  4.880222E+06  3.631823E+05  1.345120E+04  0.000000E+00  3.715092E+04  8.540442E+02
2.264794E-02  4.804396E+06  3.611748E+05  1.043255E+04  0.000000E+00  3.380145E+04  1.043255E+03
2.317548E-02  4.626524E+06  3.613134E+05  1.366140E+04  0.000000E+00  3.792567E+04  1.835113E+03
2.371531E-02  4.550503E+06  3.467126E+05  1.394821E+04  0.000000E+00  3.825794E+04  1.195561E+03
2.426771E-02  4.447700E+06  3.489461E+05  1.148874E+04  0.000000E+00  3.446622E+04  1.557795E+03
2.483298E-02  4.348551E+06  3.269215E+05  1.103693E+04  0.000000E+00  3.482342E+04  9.514596E+02
2.541141E-02  4.265558E+06  3.391917E+05  1.357511E+04  0.000000E+00  3.086942E+04  1.115762E+03
2.600332E-02  4.147564E+06  3.291083E+05  1.054019E+04  0.000000E+00  3.507338E+04  9.086368E+02
2.660901E-02  4.054219E+06  3.074096E+05  1.296412E+04  0.000000E+00  3.214393E+04  7.103630E+02
2.722882E-02  3.972520E+06  3.132547E+05  8.677415E+03  0.000000E+00  3.002385E+04  1.388386E+03
2.786306E-02  3.852754E+06  3.006970E+05  1.000627E+04  0.000000E+00  2.527008E+04  6.783914E+02
2.851207E-02  3.753951E+06  2.853997E+05  1.093866E+04  0.000000E+00  3.049567E+04  1.491636E+03
2.917620E-02  3.689880E+06  2.876493E+05  9.393952E+03  0.000000E+00  2.688614E+04  6.478588E+02
2.985580E-02  3.652738E+06  2.855334E+05  1.028806E+04  0.000000E+00  2.769864E+04  1.741057E+03
3.055124E-02  3.534171E+06  2.743936E+05  1.036323E+04  0.000000E+00  2.691346E+04  1.237401E+03
3.126287E-02  3.497558E+06  2.590784E+05  9.976180E+03  0.000000E+00  2.645199E+04  9.069255E+02
3.199107E-02  3.366687E+06  2.700204E+05  8.862813E+03  0.000000E+00  2.629301E+04  1.033995E+03
3.273624E-02  3.309395E+06  2.550685E+05  1.010458E+04  0.000000E+00  2.497275E+04  1.732214E+03
3.349876E-02  3.218688E+06  2.558925E+05  8.322855E+03  0.000000E+00  2.595602E+04  7.053267E+02
3.427905E-02  3.139770E+06  2.531005E+05  9.511947E+03  0.000000E+00  2.743301E+04  9.649801E+02
3.507751E-02  3.055636E+06  2.459921E+05  7.409400E+03  0.000000E+00  2.047689E+04  5.388654E+02
3.589457E-02  2.993191E+06  2.290707E+05  7.635691E+03  0.000000E+00  2.738317E+04  1.184849E+03
3.673066E-02  2.909619E+06  2.287453E+05  8.105147E+03  0.000000E+00  2.328622E+04  1.286531E+03
3.758623E-02  2.874316E+06  2.335963E+05  9.177897E+03  0.000000E+00  2.338478E+04  1.005797E+03
3.846173E-02  2.807415E+06  2.198015E+05  8.231806E+03  0.000000E+00  2.272961E+04  8.600395E+02
3.935762E-02  2.741709E+06  2.176798E+05  9.125022E+03  0.000000E+00  2.509381E+04  7.203965E+02
4.027437E-02  2.683641E+06  2.065062E+05  8.095980E+03  0.000000E+00  2.229328E+04  9.386644E+02
4.121248E-02  2.574740E+06  2.133864E+05  7.682369E+03  0.000000E+00  2.040987E+04  5.733111E+02
4.217245E-02  2.586837E+06  2.081930E+05  7.843653E+03  0.000000E+00  1.949708E+04  1.232574E+03
4.315477E-02  2.502658E+06  2.102430E+05  8.212618E+03  0.000000E+00  2.069580E+04  5.475078E+02
4.415997E-02  2.418725E+06  1.959335E+05  6.420540E+03  0.000000E+00  1.979667E+04  3.210270E+02
4.518859E-02  2.379877E+06  1.918918E+05  6.588111E+03  0.000000E+00  1.871860E+04  6.274391E+02
4.624117E-02  2.301893E+06  1.863997E+05  7.255689E+03  0.000000E+00  2.074514E+04  9.197353E+02
4.731826E-02  2.281253E+06  1.905455E+05  7.989329E+03  0.000000E+00  2.047266E+04  3.994665E+02
4.842045E-02  2.211271E+06  1.827924E+05  7.026723E+03  0.000000E+00  2.068980E+04  8.783404E+02
4.954830E-02  2.169901E+06  1.718601E+05  5.150081E+03  0.000000E+00  2.021884E+04  7.629750E+02
5.070243E-02  2.132811E+06  1.739130E+05  6.803669E+03  0.000000E+00  1.985180E+04  5.592057E+02
5.188344E-02  2.057940E+06  1.674951E+05  5.646925E+03  0.000000E+00  1.830697E+04  1.001874E+03
5.309196E-02  2.025603E+06  1.692008E+05  5.340373E+03  0.000000E+00  1.771224E+04  6.230435E+02
5.432863E-02  1.987410E+06  1.639577E+05  5.653712E+03  0.000000E+00  1.965752E+04  4.349009E+02
5.559411E-02  1.938261E+06  1.578455E+05  5.440018E+03  0.000000E+00  1.861506E+04  6.800022E+02
5.688906E-02  1.912748E+06  1.591534E+05  5.897646E+03  0.000000E+00  1.619776E+04  9.967852E+02
5.821418E-02  1.845992E+06  1.591023E+05  5.925748E+03  0.000000E+00  1.371851E+04  4.058732E+02
5.957016E-02  1.830230E+06  1.545287E+05  7.298072E+03  0.000000E+00  1.515143E+04  8.725956E+02
6.095773E-02  1.780119E+06  1.491507E+05  4.496228E+03  0.000000E+00  1.713218E+04  4.651270E+02
6.237762E-02  1.736795E+06  1.480284E+05  5.227204E+03  0.000000E+00  1.568161E+04  6.818092E+02
6.383058E-02  1.697557E+06  1.388103E+05  4.886122E+03  0.000000E+00  1.502853E+04  9.624179E+02
6.531738E-02  1.638659E+06  1.407872E+05  4.413165E+03  0.000000E+00  1.808674E+04  3.617348E+02
6.683882E-02  1.602278E+06  1.404812E+05  5.161111E+03  0.000000E+00  1.689734E+04  9.191020E+02
6.839570E-02  1.570227E+06  1.374907E+05  4.905448E+03  0.000000E+00  1.547634E+04  8.290898E+02
6.998884E-02  1.542789E+06  1.328757E+05  4.996341E+03  0.000000E+00  1.471895E+04  8.777356E+02
7.161909E-02  1.516578E+06  1.309727E+05  6.400178E+03  0.000000E+00  1.570353E+04  2.639249E+02
7.328731E-02  1.478768E+06  1.281849E+05  3.933238E+03  0.000000E+00  1.502368E+04  4.513551E+02
7.499439E-02  1.441957E+06  1.218644E+05  4.284787E+03  0.000000E+00  1.392556E+04  5.040926E+02
7.674123E-02  1.409811E+06  1.252481E+05  4.803026E+03  0.000000E+00  1.379331E+04  4.310408E+02
7.852877E-02  1.370379E+06  1.219157E+05  4.934398E+03  0.000000E+00  1.492355E+04  2.407023E+02
8.035794E-02  1.321955E+06  1.197287E+05  5.116107E+03  0.000000E+00  1.452504E+04  2.940291E+02
8.222971E-02  1.297898E+06  1.161413E+05  4.597379E+03  0.000000E+00  1.390707E+04  5.746724E+02
8.414509E-02  1.285033E+06  1.123183E+05  4.773526E+03  0.000000E+00  1.375899E+04  3.931139E+02
8.610508E-02  1.258581E+06  1.084993E+05  4.500225E+03  0.000000E+00  1.267746E+04  6.036887E+02
8.811073E-02  1.227036E+06  1.083894E+05  3.110630E+03  0.000000E+00  1.265705E+04  2.681577E+02
9.016309E-02  1.181391E+06  1.046118E+05  3.930806E+03  0.000000E+00  1.352197E+04  4.716967E+02
9.226326E-02  1.168942E+06  1.047403E+05  5.019338E+03  0.000000E+00  1.244591E+04  4.609596E+02
9.441234E-02  1.128820E+06  1.039577E+05  3.853994E+03  0.000000E+00  1.236281E+04  6.006225E+02
9.661149E-02  1.118972E+06  9.963487E+04  4.597780E+03  0.000000E+00  1.193466E+04  4.402130E+02
9.886186E-02  1.090681E+06  1.007606E+05  3.059147E+03  0.000000E+00  1.204539E+04  5.735900E+02
1.011646E-01  1.061604E+06  9.921443E+04  3.082934E+03  0.000000E+00  1.177120E+04  3.269779E+02
1.035211E-01  1.054694E+06  9.038275E+04  4.564785E+03  0.000000E+00  1.086419E+04  2.738871E+02
1.059324E-01  1.022522E+06  9.390148E+04  3.434876E+03  0.000000E+00  1.298115E+04  3.568702E+02
1.083999E-01  9.906591E+05  8.718672E+04  3.705436E+03  0.000000E+00  1.107271E+04  3.923402E+02
1.109248E-01  9.791426E+05  9.120886E+04  4.387909E+03  0.000000E+00  1.286552E+04  3.408084E+02
